# OpenSignals Text File Format
# {"20:15:12:22:97:41": {"sensor": ["RAW", "RAW", "RAW", "RAW", "RAW", "RAW"], "device name": "20:15:12:22:97:41", "column": ["nSeq", "I1", "I2", "O1", "O2", "EMG1", "EMG2", "EMG3", "ACC1", "ACC2", "ACC3"], "sync interval": 2, "time": "21:18:3.437", "comments": "", "device connection": "BTH20:15:12:22:97:41", "channels": [1, 2, 3, 4, 5, 6], "date": "2017-4-26", "mode": 0, "digital IO": [0, 0, 1, 1], "firmware version": 1281, "device": "bitalino_rev", "position": 0, "sampling rate": 1000, "label": ["EMG1", "EMG2", "EMG3", "ACC1", "ACC2", "ACC3"], "resolution": [4, 1, 1, 1, 1, 10, 10, 10, 10, 6, 6], "special": [{}, {}, {}, {}, {}, {}]}}
# EndOfHeader
0	1	1	0	0	512	512	508	574	30	36	
1	1	1	0	0	511	513	511	574	30	36	
2	1	1	0	0	509	513	509	574	29	36	
3	1	1	0	0	512	514	508	573	30	36	
4	1	1	0	0	514	513	509	574	29	36	
5	1	1	0	0	513	514	508	574	30	36	
6	1	1	0	0	513	515	508	575	30	36	
7	1	1	0	0	511	515	509	575	30	36	
8	1	1	0	0	513	513	509	575	30	36	
9	1	1	0	0	513	512	506	575	30	36	
10	1	1	0	0	512	514	510	574	30	36	
11	1	1	0	0	511	513	509	575	30	36	
12	1	1	0	0	509	511	508	575	29	36	
13	1	1	0	0	507	512	509	574	30	36	
14	1	1	0	0	508	511	508	575	30	36	
15	1	1	0	0	507	511	510	575	30	36	
0	1	1	0	0	507	512	509	575	30	36	
1	1	1	0	0	507	512	509	576	30	36	
2	1	1	0	0	506	512	510	576	30	36	
3	1	1	0	0	509	513	509	576	30	36	
4	1	1	0	0	509	512	509	576	29	36	
5	1	1	0	0	510	514	508	576	30	36	
6	1	1	0	0	512	512	509	577	30	36	
7	1	1	0	0	512	514	507	577	30	36	
8	1	1	0	0	511	513	509	578	30	36	
9	1	1	0	0	515	512	508	579	30	36	
10	1	1	0	0	511	517	507	578	30	36	
11	1	1	0	0	512	513	507	577	30	36	
12	1	1	0	0	513	516	508	578	30	36	
13	1	1	0	0	512	514	508	577	30	36	
14	1	1	0	0	511	512	508	579	30	36	
15	1	1	0	0	510	511	508	579	30	36	
0	1	1	0	0	509	511	511	579	30	36	
1	1	1	0	0	506	514	508	580	30	36	
2	1	1	0	0	507	511	508	580	30	36	
3	1	1	0	0	507	510	509	579	30	36	
4	1	1	0	0	509	512	510	580	30	36	
5	1	1	0	0	508	512	511	579	30	36	
6	1	1	0	0	506	512	511	580	30	36	
7	1	1	0	0	505	511	510	580	30	36	
8	1	1	0	0	507	515	509	580	30	36	
9	1	1	0	0	509	513	509	581	30	36	
10	1	1	0	0	510	514	511	581	30	36	
11	1	1	0	0	512	513	508	582	30	36	
12	1	1	0	0	511	513	509	582	30	36	
13	1	1	0	0	513	513	508	581	30	36	
14	1	1	0	0	515	515	508	582	30	36	
15	1	1	0	0	513	515	510	582	30	36	
0	1	1	0	0	513	514	508	582	30	36	
1	1	1	0	0	512	512	507	582	30	36	
2	1	1	0	0	511	513	508	582	30	36	
3	1	1	0	0	509	512	507	582	30	36	
4	1	1	0	0	510	512	508	583	30	36	
5	1	1	0	0	508	512	508	583	30	36	
6	1	1	0	0	509	511	508	583	30	36	
7	1	1	0	0	506	512	510	583	30	36	
8	1	1	0	0	506	511	511	583	31	36	
9	1	1	0	0	507	513	511	583	30	36	
10	1	1	0	0	507	512	511	582	30	36	
11	1	1	0	0	510	514	511	583	30	36	
12	1	1	0	0	510	512	508	583	30	36	
13	1	1	0	0	507	513	511	583	30	36	
14	1	1	0	0	511	512	508	583	30	36	
15	1	1	0	0	510	514	510	584	30	36	
0	1	1	0	0	511	512	508	584	31	36	
1	1	1	0	0	513	513	510	584	30	36	
2	1	1	0	0	513	514	509	583	30	36	
3	1	1	0	0	514	511	508	584	30	36	
4	1	1	0	0	512	513	508	584	30	36	
5	1	1	0	0	510	514	511	583	30	36	
6	1	1	0	0	509	512	510	584	30	36	
7	1	1	0	0	511	513	507	585	30	36	
8	1	1	0	0	508	511	507	585	31	35	
9	1	1	0	0	510	511	510	585	30	36	
10	1	1	0	0	507	512	508	585	30	35	
11	1	1	0	0	507	513	511	585	30	35	
12	1	1	0	0	509	513	509	585	30	35	
13	1	1	0	0	507	512	509	585	30	35	
14	1	1	0	0	508	515	508	586	30	35	
15	1	1	0	0	505	513	509	587	30	35	
0	1	1	0	0	509	513	508	587	31	35	
1	1	1	0	0	510	513	508	587	30	35	
2	1	1	0	0	512	515	510	586	30	35	
3	1	1	0	0	511	515	509	586	30	35	
4	1	1	0	0	511	512	509	586	30	35	
5	1	1	0	0	511	512	510	586	30	35	
6	1	1	0	0	512	513	509	586	30	35	
7	1	1	0	0	513	516	509	588	30	35	
8	1	1	0	0	513	514	510	587	31	35	
9	1	1	0	0	512	514	508	588	30	35	
10	1	1	0	0	511	513	508	587	30	35	
11	1	1	0	0	511	512	509	587	30	35	
12	1	1	0	0	509	513	509	588	30	35	
13	1	1	0	0	508	513	510	588	30	35	
14	1	1	0	0	509	514	509	588	30	35	
15	1	1	0	0	506	514	509	588	30	35	
0	1	1	0	0	506	512	510	588	31	35	
1	1	1	0	0	506	515	510	588	30	35	
2	1	1	0	0	507	511	509	588	30	35	
3	1	1	0	0	506	513	510	588	30	35	
4	1	1	0	0	509	514	511	589	30	35	
5	1	1	0	0	511	511	508	588	30	35	
6	1	1	0	0	511	512	509	589	30	35	
7	1	1	0	0	513	513	510	590	30	35	
8	1	1	0	0	512	512	509	590	31	35	
9	1	1	0	0	512	514	508	590	30	35	
10	1	1	0	0	514	515	508	590	30	35	
11	1	1	0	0	514	513	509	589	30	35	
12	1	1	0	0	513	515	509	589	30	35	
13	1	1	0	0	512	512	507	590	30	35	
14	1	1	0	0	512	512	508	590	30	35	
15	1	1	0	0	510	512	509	591	30	35	
0	1	1	0	0	508	512	509	591	31	35	
1	1	1	0	0	508	513	510	592	30	35	
2	1	1	0	0	506	513	510	591	30	35	
3	1	1	0	0	506	513	508	591	30	35	
4	1	1	0	0	508	513	508	590	30	35	
5	1	1	0	0	509	513	508	590	30	35	
6	1	1	0	0	507	514	511	591	30	35	
7	1	1	0	0	507	512	509	591	30	35	
8	1	1	0	0	508	516	508	591	31	35	
9	1	1	0	0	509	513	511	591	30	35	
10	1	1	0	0	511	515	508	591	30	35	
11	1	1	0	0	512	515	509	591	30	35	
12	1	1	0	0	512	514	507	591	30	35	
13	1	1	0	0	511	515	509	591	30	35	
14	1	1	0	0	513	514	508	591	30	35	
15	1	1	0	0	512	513	508	592	30	35	
0	1	1	0	0	513	513	510	592	31	35	
1	1	1	0	0	511	512	507	593	30	35	
2	1	1	0	0	511	514	505	592	30	35	
3	1	1	0	0	508	514	507	592	30	35	
4	1	1	0	0	510	512	507	592	30	35	
5	1	1	0	0	508	511	508	592	30	35	
6	1	1	0	0	507	509	511	593	30	35	
7	1	1	0	0	508	510	510	593	30	35	
8	1	1	0	0	508	509	510	593	30	35	
9	1	1	0	0	507	511	512	593	30	35	
10	1	1	0	0	508	511	511	594	30	35	
11	1	1	0	0	510	510	512	594	30	35	
12	1	1	0	0	511	513	512	594	30	35	
13	1	1	0	0	511	513	512	594	30	35	
14	1	1	0	0	511	519	512	594	30	35	
15	1	1	0	0	511	519	508	595	30	35	
0	1	1	0	0	512	516	508	595	31	35	
1	1	1	0	0	512	511	509	595	30	35	
2	1	1	0	0	513	510	507	595	30	35	
3	1	1	0	0	513	511	507	595	30	35	
4	1	1	0	0	514	511	509	595	30	35	
5	1	1	0	0	513	507	506	595	30	35	
6	1	1	0	0	513	504	508	597	30	35	
7	1	1	0	0	511	509	508	596	30	35	
8	1	1	0	0	509	519	509	597	31	35	
9	1	1	0	0	510	523	510	597	30	35	
10	1	1	0	0	509	521	507	597	30	35	
11	1	1	0	0	504	524	508	598	30	35	
12	1	1	0	0	505	530	507	599	30	35	
13	1	1	0	0	501	518	507	599	30	35	
14	1	1	0	0	501	503	504	599	30	35	
15	1	1	0	0	504	495	505	599	30	35	
0	1	1	0	0	506	497	509	599	31	35	
1	1	1	0	0	512	507	511	600	30	35	
2	1	1	0	0	513	513	511	600	30	35	
3	1	1	0	0	512	514	512	600	30	35	
4	1	1	0	0	513	512	509	600	30	35	
5	1	1	0	0	514	515	508	600	31	35	
6	1	1	0	0	513	514	510	601	31	35	
7	1	1	0	0	513	515	511	601	31	35	
8	1	1	0	0	514	514	510	601	31	35	
9	1	1	0	0	512	515	510	601	31	35	
10	1	1	0	0	511	516	510	602	31	35	
11	1	1	0	0	513	514	510	602	31	35	
12	1	1	0	0	513	516	510	602	30	35	
13	1	1	0	0	511	514	512	603	31	35	
14	1	1	0	0	508	513	509	603	31	35	
15	1	1	0	0	507	514	511	603	31	35	
0	1	1	0	0	505	514	508	603	31	35	
1	1	1	0	0	504	508	507	603	31	35	
2	1	1	0	0	504	508	507	603	31	35	
3	1	1	0	0	506	510	508	603	31	35	
4	1	1	0	0	508	511	509	604	30	35	
5	1	1	0	0	510	513	511	603	31	35	
6	1	1	0	0	510	515	511	603	31	35	
7	1	1	0	0	511	516	510	604	31	35	
8	1	1	0	0	512	513	507	604	31	35	
9	1	1	0	0	515	514	507	604	31	35	
10	1	1	0	0	513	514	507	604	31	35	
11	1	1	0	0	512	513	508	604	31	35	
12	1	1	0	0	513	513	507	604	30	35	
13	1	1	0	0	511	514	508	604	31	35	
14	1	1	0	0	510	513	510	604	31	35	
15	1	1	0	0	511	512	508	604	31	35	
0	1	1	0	0	511	514	508	605	31	35	
1	1	1	0	0	510	513	508	605	31	35	
2	1	1	0	0	509	513	510	604	31	35	
3	1	1	0	0	510	515	511	604	31	35	
4	1	1	0	0	508	511	508	604	30	35	
5	1	1	0	0	506	513	510	604	31	35	
6	1	1	0	0	509	513	512	604	31	35	
7	1	1	0	0	507	511	512	605	31	35	
8	1	1	0	0	510	511	510	605	31	34	
9	1	1	0	0	509	512	511	605	31	34	
10	1	1	0	0	510	515	512	605	31	34	
11	1	1	0	0	510	516	511	605	31	34	
12	1	1	0	0	510	514	510	605	30	35	
13	1	1	0	0	510	513	510	604	31	35	
14	1	1	0	0	512	513	509	604	31	35	
15	1	1	0	0	511	514	510	604	31	35	
0	1	1	0	0	513	515	507	605	31	35	
1	1	1	0	0	511	514	508	605	31	34	
2	1	1	0	0	513	514	509	604	31	34	
3	1	1	0	0	511	512	510	605	31	34	
4	1	1	0	0	511	512	508	604	30	35	
5	1	1	0	0	509	511	510	604	31	35	
6	1	1	0	0	508	510	507	604	31	35	
7	1	1	0	0	508	511	508	604	31	35	
8	1	1	0	0	508	511	509	605	31	35	
9	1	1	0	0	507	514	511	605	31	35	
10	1	1	0	0	509	513	511	605	31	35	
11	1	1	0	0	508	513	510	604	31	35	
12	1	1	0	0	509	512	508	606	30	35	
13	1	1	0	0	510	512	509	604	31	35	
14	1	1	0	0	510	513	508	605	31	35	
15	1	1	0	0	512	515	511	605	31	35	
0	1	1	0	0	510	515	508	604	31	35	
1	1	1	0	0	512	511	507	605	31	35	
2	1	1	0	0	512	515	506	605	31	35	
3	1	1	0	0	514	516	507	605	31	35	
4	1	1	0	0	512	515	508	605	30	34	
5	1	1	0	0	512	512	507	605	31	35	
6	1	1	0	0	511	514	508	605	31	35	
7	1	1	0	0	512	512	509	605	31	35	
8	1	1	0	0	510	515	508	606	31	35	
9	1	1	0	0	507	515	510	606	30	35	
10	1	1	0	0	508	515	508	605	30	35	
11	1	1	0	0	507	514	510	605	30	35	
12	1	1	0	0	507	511	508	605	30	35	
13	1	1	0	0	505	510	510	605	30	35	
14	1	1	0	0	507	508	508	605	30	34	
15	1	1	0	0	509	510	508	605	30	35	
0	1	1	0	0	508	511	508	606	31	35	
1	1	1	0	0	509	510	507	606	30	35	
2	1	1	0	0	511	513	507	605	30	35	
3	1	1	0	0	511	513	510	604	30	35	
4	1	1	0	0	512	515	510	605	30	34	
5	1	1	0	0	512	513	510	604	30	34	
6	1	1	0	0	513	513	510	604	30	35	
7	1	1	0	0	512	514	508	604	30	35	
8	1	1	0	0	512	515	510	604	31	34	
9	1	1	0	0	513	512	510	604	30	35	
10	1	1	0	0	512	511	510	603	30	34	
11	1	1	0	0	513	514	510	603	30	34	
12	1	1	0	0	510	515	510	603	30	34	
13	1	1	0	0	510	515	511	603	30	34	
14	1	1	0	0	507	518	507	603	30	34	
15	1	1	0	0	505	516	508	603	30	34	
0	1	1	0	0	507	513	507	603	30	34	
1	1	1	0	0	505	513	507	603	30	34	
2	1	1	0	0	505	510	507	602	30	34	
3	1	1	0	0	508	510	507	601	30	34	
4	1	1	0	0	507	514	510	602	30	34	
5	1	1	0	0	508	513	511	601	30	34	
6	1	1	0	0	510	512	509	601	30	34	
7	1	1	0	0	509	508	510	602	30	34	
8	1	1	0	0	512	507	508	602	30	34	
9	1	1	0	0	512	512	510	602	30	34	
10	1	1	0	0	513	513	510	600	30	34	
11	1	1	0	0	512	515	509	600	30	34	
12	1	1	0	0	515	518	508	600	29	34	
13	1	1	0	0	513	515	508	600	30	34	
14	1	1	0	0	510	515	509	600	30	34	
15	1	1	0	0	508	513	507	600	30	34	
0	1	1	0	0	510	512	511	601	30	34	
1	1	1	0	0	510	512	508	601	30	34	
2	1	1	0	0	510	514	509	600	30	34	
3	1	1	0	0	508	513	511	600	30	34	
4	1	1	0	0	508	513	509	600	29	34	
5	1	1	0	0	509	511	510	598	30	34	
6	1	1	0	0	507	515	510	599	30	34	
7	1	1	0	0	508	512	511	599	30	34	
8	1	1	0	0	509	512	510	599	30	34	
9	1	1	0	0	509	513	511	600	30	34	
10	1	1	0	0	512	514	511	599	30	34	
11	1	1	0	0	513	513	507	599	30	34	
12	1	1	0	0	513	512	509	599	29	34	
13	1	1	0	0	513	512	508	598	30	34	
14	1	1	0	0	513	514	505	599	30	34	
15	1	1	0	0	512	515	507	599	30	34	
0	1	1	0	0	509	514	507	600	30	34	
1	1	1	0	0	510	513	507	599	30	34	
2	1	1	0	0	509	512	508	599	30	34	
3	1	1	0	0	508	511	508	599	30	34	
4	1	1	0	0	507	511	509	600	30	34	
5	1	1	0	0	509	512	510	599	30	34	
6	1	1	0	0	509	510	508	600	30	34	
7	1	1	0	0	509	514	508	600	30	34	
8	1	1	0	0	505	513	510	600	30	34	
9	1	1	0	0	506	512	511	600	30	34	
10	1	1	0	0	508	513	512	600	30	34	
11	1	1	0	0	507	512	511	600	30	34	
12	1	1	0	0	509	513	511	601	30	34	
13	1	1	0	0	511	514	510	600	30	34	
14	1	1	0	0	510	514	510	600	30	34	
15	1	1	0	0	512	514	509	600	30	34	
0	1	1	0	0	511	513	509	601	30	34	
1	1	1	0	0	512	515	509	602	30	34	
2	1	1	0	0	512	514	506	600	30	34	
3	1	1	0	0	513	515	508	601	30	34	
4	1	1	0	0	511	515	507	601	30	34	
5	1	1	0	0	510	512	508	601	30	34	
6	1	1	0	0	512	515	508	602	30	34	
7	1	1	0	0	511	514	508	602	30	34	
8	1	1	0	0	512	512	508	602	30	34	
9	1	1	0	0	508	512	508	602	30	34	
10	1	1	0	0	507	513	507	602	30	34	
11	1	1	0	0	506	512	510	603	30	34	
12	1	1	0	0	510	512	510	603	30	34	
13	1	1	0	0	508	511	510	603	30	34	
14	1	1	0	0	507	512	509	603	30	34	
15	1	1	0	0	508	512	510	603	30	34	
0	1	1	0	0	509	513	508	603	30	34	
1	1	1	0	0	511	514	508	604	30	34	
2	1	1	0	0	510	513	511	603	30	34	
3	1	1	0	0	510	514	511	604	30	34	
4	1	1	0	0	511	513	509	604	30	34	
5	1	1	0	0	511	515	510	603	30	34	
6	1	1	0	0	512	513	508	604	30	34	
7	1	1	0	0	512	514	508	603	30	34	
8	1	1	0	0	510	515	509	604	30	34	
9	1	1	0	0	512	513	508	604	30	34	
10	1	1	0	0	512	511	508	604	30	34	
11	1	1	0	0	511	513	510	603	30	34	
12	1	1	0	0	510	512	511	604	30	34	
13	1	1	0	0	510	513	508	603	30	34	
14	1	1	0	0	509	513	509	604	30	34	
15	1	1	0	0	506	512	511	604	30	34	
0	1	1	0	0	508	513	511	604	30	34	
1	1	1	0	0	509	513	509	604	30	34	
2	1	1	0	0	509	511	511	603	30	34	
3	1	1	0	0	508	514	509	603	30	34	
4	1	1	0	0	510	512	508	603	30	34	
5	1	1	0	0	510	511	509	601	30	34	
6	1	1	0	0	508	514	508	603	30	34	
7	1	1	0	0	510	514	510	603	30	34	
8	1	1	0	0	510	514	508	603	30	34	
9	1	1	0	0	510	515	507	603	30	34	
10	1	1	0	0	511	514	510	602	30	34	
11	1	1	0	0	511	513	509	602	30	34	
12	1	1	0	0	511	515	510	602	30	34	
13	1	1	0	0	511	512	509	602	30	34	
14	1	1	0	0	511	512	506	602	30	34	
15	1	1	0	0	511	512	508	603	30	34	
0	1	1	0	0	511	513	509	603	30	34	
1	1	1	0	0	511	511	511	603	30	34	
2	1	1	0	0	510	514	509	602	30	34	
3	1	1	0	0	507	513	507	603	30	34	
4	1	1	0	0	505	510	509	601	30	34	
5	1	1	0	0	508	510	509	601	30	34	
6	1	1	0	0	508	514	511	602	30	34	
7	1	1	0	0	510	512	511	602	30	34	
8	1	1	0	0	511	511	510	603	30	34	
9	1	1	0	0	510	515	510	602	30	34	
10	1	1	0	0	511	515	510	602	30	34	
11	1	1	0	0	509	514	509	602	30	34	
12	1	1	0	0	509	515	509	601	30	34	
13	1	1	0	0	513	515	508	601	30	34	
14	1	1	0	0	510	513	508	602	30	34	
15	1	1	0	0	510	514	508	603	30	34	
0	1	1	0	0	512	512	509	603	30	34	
1	1	1	0	0	514	512	509	604	30	34	
2	1	1	0	0	512	513	508	603	30	34	
3	1	1	0	0	510	512	509	603	30	34	
4	1	1	0	0	509	513	510	603	30	34	
5	1	1	0	0	507	512	508	602	30	34	
6	1	1	0	0	509	513	509	602	30	34	
7	1	1	0	0	508	513	508	603	30	34	
8	1	1	0	0	507	511	508	603	30	34	
9	1	1	0	0	506	512	509	603	30	34	
10	1	1	0	0	508	511	510	603	30	34	
11	1	1	0	0	509	512	510	603	30	34	
12	1	1	0	0	508	513	510	603	30	34	
13	1	1	0	0	509	513	508	601	30	34	
14	1	1	0	0	510	513	511	603	30	34	
15	1	1	0	0	509	515	509	603	30	34	
0	1	1	0	0	513	512	509	603	31	34	
1	1	1	0	0	512	515	509	604	30	34	
2	1	1	0	0	512	513	508	604	30	34	
3	1	1	0	0	512	512	508	604	30	34	
4	1	1	0	0	513	515	508	604	30	34	
5	1	1	0	0	510	515	508	603	30	34	
6	1	1	0	0	511	510	510	603	30	34	
7	1	1	0	0	511	513	509	604	30	34	
8	1	1	0	0	511	515	509	604	31	34	
9	1	1	0	0	508	513	511	604	30	34	
10	1	1	0	0	509	512	508	604	30	34	
11	1	1	0	0	508	513	510	604	30	34	
12	1	1	0	0	507	513	509	604	30	34	
13	1	1	0	0	507	513	511	604	30	34	
14	1	1	0	0	505	515	509	604	30	34	
15	1	1	0	0	507	510	511	603	30	34	
0	1	1	0	0	507	511	510	604	31	34	
1	1	1	0	0	508	511	508	604	30	34	
2	1	1	0	0	509	512	509	603	30	34	
3	1	1	0	0	511	512	509	604	30	34	
4	1	1	0	0	512	514	509	604	30	34	
5	1	1	0	0	513	515	508	604	30	34	
6	1	1	0	0	512	515	508	603	30	34	
7	1	1	0	0	513	515	508	604	30	34	
8	1	1	0	0	513	513	508	603	31	34	
9	1	1	0	0	512	512	506	604	30	34	
10	1	1	0	0	513	512	509	604	30	34	
11	1	1	0	0	511	512	507	604	30	34	
12	1	1	0	0	511	513	510	604	30	34	
13	1	1	0	0	508	513	510	604	30	34	
14	1	1	0	0	508	512	508	604	30	34	
15	1	1	0	0	504	511	511	603	30	34	
0	1	1	0	0	506	513	507	603	31	34	
1	1	1	0	0	508	511	511	603	30	34	
2	1	1	0	0	508	513	511	603	30	34	
3	1	1	0	0	507	513	510	603	30	34	
4	1	1	0	0	507	513	511	603	30	34	
5	1	1	0	0	511	512	508	603	30	34	
6	1	1	0	0	511	514	511	603	30	34	
7	1	1	0	0	513	514	508	602	30	34	
8	1	1	0	0	512	515	509	602	31	34	
9	1	1	0	0	512	515	509	602	30	34	
10	1	1	0	0	515	516	509	601	30	34	
11	1	1	0	0	512	514	508	601	30	34	
12	1	1	0	0	510	515	508	601	30	34	
13	1	1	0	0	512	513	508	601	30	34	
14	1	1	0	0	512	512	508	601	30	34	
15	1	1	0	0	511	512	508	601	30	34	
0	1	1	0	0	509	512	509	601	30	34	
1	1	1	0	0	507	511	507	601	30	34	
2	1	1	0	0	510	511	509	601	30	34	
3	1	1	0	0	509	513	510	600	30	34	
4	1	1	0	0	508	513	509	600	30	34	
5	1	1	0	0	507	511	512	599	30	34	
6	1	1	0	0	506	511	512	600	30	34	
7	1	1	0	0	506	512	508	600	30	34	
8	1	1	0	0	508	513	508	600	30	34	
9	1	1	0	0	510	513	508	600	30	34	
10	1	1	0	0	511	515	509	599	30	34	
11	1	1	0	0	511	514	508	599	30	34	
12	1	1	0	0	512	514	509	599	30	34	
13	1	1	0	0	513	515	509	599	30	34	
14	1	1	0	0	511	515	509	599	30	34	
15	1	1	0	0	513	513	509	600	30	34	
0	1	1	0	0	517	513	508	599	30	34	
1	1	1	0	0	512	513	508	599	30	34	
2	1	1	0	0	511	512	508	599	30	34	
3	1	1	0	0	510	514	508	598	30	34	
4	1	1	0	0	508	511	509	599	30	34	
5	1	1	0	0	507	514	509	598	30	34	
6	1	1	0	0	508	514	509	598	30	34	
7	1	1	0	0	509	511	508	598	30	34	
8	1	1	0	0	506	512	507	599	31	34	
9	1	1	0	0	508	512	512	599	30	34	
10	1	1	0	0	507	514	511	600	30	34	
11	1	1	0	0	507	512	511	599	30	34	
12	1	1	0	0	508	514	510	599	30	34	
13	1	1	0	0	508	513	510	598	30	34	
14	1	1	0	0	511	514	509	599	30	34	
15	1	1	0	0	511	514	511	599	30	34	
0	1	1	0	0	513	514	510	600	31	34	
1	1	1	0	0	515	514	508	601	30	34	
2	1	1	0	0	512	514	509	600	30	34	
3	1	1	0	0	512	512	508	600	30	34	
4	1	1	0	0	512	516	509	600	30	34	
5	1	1	0	0	510	513	508	599	30	34	
6	1	1	0	0	511	515	507	601	30	34	
7	1	1	0	0	509	513	506	601	31	34	
8	1	1	0	0	508	511	508	600	31	34	
9	1	1	0	0	508	512	508	602	31	34	
10	1	1	0	0	505	512	509	603	31	34	
11	1	1	0	0	505	512	510	602	31	34	
12	1	1	0	0	506	513	508	602	30	34	
13	1	1	0	0	510	512	508	601	31	34	
14	1	1	0	0	509	511	511	603	31	34	
15	1	1	0	0	508	512	508	603	31	34	
0	1	1	0	0	511	513	509	603	31	34	
1	1	1	0	0	509	513	510	603	31	34	
2	1	1	0	0	510	515	510	603	31	34	
3	1	1	0	0	511	514	511	604	31	34	
4	1	1	0	0	512	515	508	604	30	34	
5	1	1	0	0	514	515	508	603	31	34	
6	1	1	0	0	512	514	509	603	31	34	
7	1	1	0	0	515	514	510	604	30	34	
8	1	1	0	0	512	515	509	604	31	34	
9	1	1	0	0	514	511	510	605	31	34	
10	1	1	0	0	510	515	512	604	31	34	
11	1	1	0	0	511	512	509	604	31	34	
12	1	1	0	0	510	512	509	605	30	34	
13	1	1	0	0	509	512	511	604	31	34	
14	1	1	0	0	509	512	510	604	30	34	
15	1	1	0	0	507	511	508	604	31	34	
0	1	1	0	0	507	513	508	604	31	34	
1	1	1	0	0	505	512	510	604	30	34	
2	1	1	0	0	507	513	508	604	30	34	
3	1	1	0	0	509	514	510	604	30	34	
4	1	1	0	0	508	514	510	604	30	34	
5	1	1	0	0	508	514	510	603	30	34	
6	1	1	0	0	510	512	510	604	30	34	
7	1	1	0	0	510	513	511	604	30	34	
8	1	1	0	0	512	512	508	604	31	34	
9	1	1	0	0	513	513	510	604	30	34	
10	1	1	0	0	513	512	509	604	30	34	
11	1	1	0	0	513	514	508	604	30	34	
12	1	1	0	0	513	514	508	604	30	34	
13	1	1	0	0	510	513	509	603	30	34	
14	1	1	0	0	511	513	507	604	30	34	
15	1	1	0	0	509	513	506	604	30	34	
0	1	1	0	0	510	512	508	603	30	34	
1	1	1	0	0	507	514	507	604	30	34	
2	1	1	0	0	509	511	509	603	30	34	
3	1	1	0	0	509	511	509	603	30	34	
4	1	1	0	0	508	513	508	603	30	34	
5	1	1	0	0	507	513	510	603	30	34	
6	1	1	0	0	508	512	511	604	30	34	
7	1	1	0	0	508	512	510	603	30	34	
8	1	1	0	0	509	511	510	602	30	34	
9	1	1	0	0	511	512	511	602	30	34	
10	1	1	0	0	510	512	509	602	30	34	
11	1	1	0	0	513	515	509	602	30	34	
12	1	1	0	0	511	515	509	602	30	34	
13	1	1	0	0	513	517	508	601	30	34	
14	1	1	0	0	511	513	507	602	30	34	
15	1	1	0	0	510	514	509	602	30	34	
0	1	1	0	0	512	512	508	601	30	34	
1	1	1	0	0	511	512	508	602	30	34	
2	1	1	0	0	511	513	510	601	30	34	
3	1	1	0	0	511	514	510	601	30	34	
4	1	1	0	0	509	513	510	602	30	34	
5	1	1	0	0	508	512	508	601	30	34	
6	1	1	0	0	507	510	509	602	30	34	
7	1	1	0	0	508	512	510	602	30	34	
8	1	1	0	0	507	512	509	602	30	34	
9	1	1	0	0	509	511	511	603	30	34	
10	1	1	0	0	508	512	508	601	30	34	
11	1	1	0	0	506	512	510	602	30	34	
12	1	1	0	0	509	515	508	601	30	34	
13	1	1	0	0	509	515	511	601	30	34	
14	1	1	0	0	511	514	508	602	30	34	
15	1	1	0	0	510	514	509	601	30	34	
0	1	1	0	0	510	513	509	602	30	34	
1	1	1	0	0	512	514	508	602	30	34	
2	1	1	0	0	512	514	509	602	30	34	
3	1	1	0	0	512	514	511	602	30	34	
4	1	1	0	0	513	512	509	602	30	34	
5	1	1	0	0	511	513	510	601	30	34	
6	1	1	0	0	511	514	508	602	30	34	
7	1	1	0	0	512	511	509	603	30	34	
8	1	1	0	0	509	515	509	603	30	34	
9	1	1	0	0	508	513	508	603	30	34	
10	1	1	0	0	508	512	508	603	30	34	
11	1	1	0	0	508	513	510	603	30	34	
12	1	1	0	0	505	513	509	602	30	34	
13	1	1	0	0	507	512	509	602	30	34	
14	1	1	0	0	507	513	509	603	30	34	
15	1	1	0	0	507	511	510	603	30	34	
0	1	1	0	0	509	512	510	603	30	34	
1	1	1	0	0	512	513	508	604	30	34	
2	1	1	0	0	512	513	508	604	30	34	
3	1	1	0	0	512	516	509	603	30	34	
4	1	1	0	0	513	515	508	604	30	34	
5	1	1	0	0	511	515	508	603	30	34	
6	1	1	0	0	514	513	509	603	30	34	
7	1	1	0	0	512	514	508	604	30	34	
8	1	1	0	0	513	513	511	604	31	34	
9	1	1	0	0	510	512	508	605	30	34	
10	1	1	0	0	510	512	509	604	30	34	
11	1	1	0	0	511	511	508	605	30	34	
12	1	1	0	0	507	512	510	604	30	34	
13	1	1	0	0	507	512	507	603	30	34	
14	1	1	0	0	509	511	508	604	30	34	
15	1	1	0	0	507	511	510	605	30	34	
0	1	1	0	0	506	511	508	604	30	34	
1	1	1	0	0	508	513	509	604	30	34	
2	1	1	0	0	508	513	509	604	30	34	
3	1	1	0	0	508	513	510	604	30	34	
4	1	1	0	0	509	514	510	605	30	34	
5	1	1	0	0	510	513	510	604	30	34	
6	1	1	0	0	511	512	510	604	30	34	
7	1	1	0	0	513	513	509	604	30	34	
8	1	1	0	0	513	513	507	604	30	34	
9	1	1	0	0	512	515	511	604	30	34	
10	1	1	0	0	513	513	509	604	30	34	
11	1	1	0	0	513	513	508	604	30	34	
12	1	1	0	0	513	513	511	604	30	34	
13	1	1	0	0	511	513	508	603	30	34	
14	1	1	0	0	512	512	508	603	30	34	
15	1	1	0	0	510	513	510	604	30	34	
0	1	1	0	0	509	513	507	603	30	34	
1	1	1	0	0	510	513	509	603	30	34	
2	1	1	0	0	508	512	510	603	30	34	
3	1	1	0	0	508	515	510	604	30	34	
4	1	1	0	0	505	512	511	603	30	34	
5	1	1	0	0	507	513	512	602	30	34	
6	1	1	0	0	509	512	510	603	30	34	
7	1	1	0	0	509	512	509	603	30	34	
8	1	1	0	0	511	513	511	603	30	34	
9	1	1	0	0	509	512	509	604	30	34	
10	1	1	0	0	509	513	512	602	30	34	
11	1	1	0	0	511	515	509	603	30	34	
12	1	1	0	0	511	515	508	603	30	34	
13	1	1	0	0	512	515	507	602	30	34	
14	1	1	0	0	512	515	508	603	30	34	
15	1	1	0	0	512	514	508	602	30	34	
0	1	1	0	0	512	513	509	603	30	34	
1	1	1	0	0	511	511	508	602	30	34	
2	1	1	0	0	511	512	507	602	30	34	
3	1	1	0	0	510	511	508	602	30	34	
4	1	1	0	0	510	510	508	602	30	34	
5	1	1	0	0	508	511	511	601	30	34	
6	1	1	0	0	511	510	508	602	30	34	
7	1	1	0	0	508	513	511	602	30	34	
8	1	1	0	0	505	513	510	602	30	34	
9	1	1	0	0	509	513	509	601	30	34	
10	1	1	0	0	507	513	509	601	30	34	
11	1	1	0	0	507	514	510	601	30	34	
12	1	1	0	0	513	513	509	602	30	34	
13	1	1	0	0	509	512	509	601	30	34	
14	1	1	0	0	508	514	509	601	30	34	
15	1	1	0	0	508	514	510	602	30	34	
0	1	1	0	0	511	512	509	603	30	34	
1	1	1	0	0	515	512	507	602	30	34	
2	1	1	0	0	514	513	505	601	30	34	
3	1	1	0	0	513	513	509	601	30	34	
4	1	1	0	0	513	512	508	601	30	34	
5	1	1	0	0	511	513	509	600	30	34	
6	1	1	0	0	510	516	507	602	30	34	
7	1	1	0	0	512	511	508	602	30	34	
8	1	1	0	0	509	512	508	602	30	34	
9	1	1	0	0	504	514	508	603	30	34	
10	1	1	0	0	508	512	509	602	30	34	
11	1	1	0	0	507	511	511	603	30	34	
12	1	1	0	0	507	513	511	601	30	34	
13	1	1	0	0	507	513	511	601	30	34	
14	1	1	0	0	507	515	508	602	30	34	
15	1	1	0	0	508	514	511	601	30	34	
0	1	1	0	0	508	512	510	602	30	34	
1	1	1	0	0	509	512	508	603	30	34	
2	1	1	0	0	513	515	509	602	30	34	
3	1	1	0	0	511	513	510	602	30	34	
4	1	1	0	0	512	513	510	602	30	34	
5	1	1	0	0	513	515	508	601	30	34	
6	1	1	0	0	515	514	508	601	30	34	
7	1	1	0	0	515	512	509	601	30	34	
8	1	1	0	0	511	513	509	602	31	34	
9	1	1	0	0	512	513	510	602	30	34	
10	1	1	0	0	512	512	509	601	30	34	
11	1	1	0	0	510	512	509	602	30	34	
12	1	1	0	0	509	511	508	602	30	34	
13	1	1	0	0	507	510	508	602	30	34	
14	1	1	0	0	509	512	507	602	30	34	
15	1	1	0	0	507	512	508	602	30	34	
0	1	1	0	0	508	512	508	602	31	34	
1	1	1	0	0	507	515	509	603	30	34	
2	1	1	0	0	507	516	510	602	30	34	
3	1	1	0	0	508	512	510	603	30	34	
4	1	1	0	0	509	512	512	602	30	34	
5	1	1	0	0	508	512	510	602	30	34	
6	1	1	0	0	508	513	509	603	30	34	
7	1	1	0	0	511	514	510	602	30	34	
8	1	1	0	0	511	513	510	602	31	34	
9	1	1	0	0	512	514	510	603	30	34	
10	1	1	0	0	512	514	507	603	30	34	
11	1	1	0	0	511	515	506	603	30	34	
12	1	1	0	0	510	512	508	603	30	34	
13	1	1	0	0	513	514	506	602	30	34	
14	1	1	0	0	512	513	508	603	30	34	
15	1	1	0	0	512	510	508	601	30	34	
0	1	1	0	0	510	513	509	601	31	34	
1	1	1	0	0	508	513	507	602	30	34	
2	1	1	0	0	508	512	508	602	30	34	
3	1	1	0	0	507	511	509	602	30	34	
4	1	1	0	0	505	511	506	602	30	34	
5	1	1	0	0	510	511	509	602	30	34	
6	1	1	0	0	507	511	512	602	31	34	
7	1	1	0	0	509	511	510	602	31	34	
8	1	1	0	0	509	513	510	601	31	34	
9	1	1	0	0	510	512	510	602	30	34	
10	1	1	0	0	509	513	511	601	30	34	
11	1	1	0	0	511	514	512	602	30	34	
12	1	1	0	0	511	515	506	602	30	34	
13	1	1	0	0	511	516	509	601	30	34	
14	1	1	0	0	512	515	512	602	30	34	
15	1	1	0	0	511	513	508	602	30	34	
0	1	1	0	0	511	513	509	602	31	34	
1	1	1	0	0	512	513	508	602	30	34	
2	1	1	0	0	512	513	506	601	30	34	
3	1	1	0	0	510	515	508	601	30	34	
4	1	1	0	0	508	513	507	602	30	34	
5	1	1	0	0	508	512	508	601	30	34	
6	1	1	0	0	510	512	510	601	30	34	
7	1	1	0	0	510	512	511	602	30	34	
8	1	1	0	0	508	511	512	602	31	34	
9	1	1	0	0	506	511	512	603	30	34	
10	1	1	0	0	507	511	511	601	30	34	
11	1	1	0	0	509	513	508	602	30	34	
12	1	1	0	0	510	511	511	601	30	34	
13	1	1	0	0	511	513	511	601	30	34	
14	1	1	0	0	512	512	508	602	30	34	
15	1	1	0	0	512	515	509	601	30	34	
0	1	1	0	0	511	515	507	602	31	34	
1	1	1	0	0	510	515	509	602	30	34	
2	1	1	0	0	511	515	509	601	30	34	
3	1	1	0	0	512	515	510	601	30	34	
4	1	1	0	0	511	513	509	601	30	34	
5	1	1	0	0	512	513	508	600	30	34	
6	1	1	0	0	512	512	508	601	30	34	
7	1	1	0	0	510	512	508	601	30	34	
8	1	1	0	0	509	512	508	601	31	34	
9	1	1	0	0	510	511	507	602	30	34	
10	1	1	0	0	507	512	507	601	30	34	
11	1	1	0	0	507	511	508	601	30	34	
12	1	1	0	0	507	512	508	601	30	34	
13	1	1	0	0	508	512	511	600	30	34	
14	1	1	0	0	508	512	510	601	30	34	
15	1	1	0	0	507	512	510	600	30	34	
0	1	1	0	0	508	512	508	601	31	34	
1	1	1	0	0	511	514	510	601	30	34	
2	1	1	0	0	509	512	510	600	30	34	
3	1	1	0	0	509	516	510	600	30	34	
4	1	1	0	0	511	515	511	600	30	34	
5	1	1	0	0	513	515	511	599	30	34	
6	1	1	0	0	515	514	508	600	30	34	
7	1	1	0	0	510	514	509	600	30	34	
8	1	1	0	0	512	515	508	600	31	34	
9	1	1	0	0	513	515	507	601	30	34	
10	1	1	0	0	511	513	506	600	30	34	
11	1	1	0	0	510	511	508	600	30	34	
12	1	1	0	0	509	511	509	600	30	34	
13	1	1	0	0	508	511	508	600	30	34	
14	1	1	0	0	508	510	509	601	30	34	
15	1	1	0	0	507	512	507	600	31	34	
0	1	1	0	0	508	513	510	601	31	34	
1	1	1	0	0	508	510	510	601	30	34	
2	1	1	0	0	510	511	510	600	30	34	
3	1	1	0	0	507	514	510	601	31	34	
4	1	1	0	0	508	513	510	601	30	34	
5	1	1	0	0	508	513	511	601	31	34	
6	1	1	0	0	512	513	511	600	31	34	
7	1	1	0	0	511	515	510	601	31	34	
8	1	1	0	0	511	515	510	600	31	34	
9	1	1	0	0	512	515	509	602	31	34	
10	1	1	0	0	512	513	509	601	31	34	
11	1	1	0	0	512	514	510	601	31	34	
12	1	1	0	0	513	511	508	601	30	34	
13	1	1	0	0	513	513	506	601	31	34	
14	1	1	0	0	511	514	508	602	31	34	
15	1	1	0	0	512	510	508	602	31	34	
0	1	1	0	0	508	512	509	601	31	34	
1	1	1	0	0	509	512	510	602	31	34	
2	1	1	0	0	505	511	508	602	31	34	
3	1	1	0	0	508	512	508	603	31	34	
4	1	1	0	0	508	513	508	603	30	34	
5	1	1	0	0	507	513	509	603	31	34	
6	1	1	0	0	506	514	509	603	31	34	
7	1	1	0	0	508	511	509	603	31	34	
8	1	1	0	0	508	515	510	604	31	34	
9	1	1	0	0	511	511	508	603	31	34	
10	1	1	0	0	511	514	512	603	31	34	
11	1	1	0	0	511	516	512	603	31	34	
12	1	1	0	0	510	514	510	604	30	34	
13	1	1	0	0	513	512	508	603	31	34	
14	1	1	0	0	512	514	507	603	31	34	
15	1	1	0	0	514	514	508	603	31	34	
0	1	1	0	0	513	513	508	603	31	34	
1	1	1	0	0	511	516	506	602	31	34	
2	1	1	0	0	511	514	508	602	31	34	
3	1	1	0	0	510	516	509	602	31	34	
4	1	1	0	0	510	513	508	602	30	34	
5	1	1	0	0	509	514	508	602	31	34	
6	1	1	0	0	510	511	510	603	31	34	
7	1	1	0	0	508	511	508	603	31	34	
8	1	1	0	0	506	512	510	603	31	34	
9	1	1	0	0	507	511	511	603	31	34	
10	1	1	0	0	505	510	510	602	31	34	
11	1	1	0	0	508	513	510	602	31	34	
12	1	1	0	0	509	514	512	602	30	34	
13	1	1	0	0	509	514	512	601	30	34	
14	1	1	0	0	512	512	512	602	31	34	
15	1	1	0	0	511	513	512	602	31	34	
0	1	1	0	0	513	513	509	602	31	34	
1	1	1	0	0	513	512	509	602	31	34	
2	1	1	0	0	513	512	507	601	30	34	
3	1	1	0	0	511	513	509	601	30	34	
4	1	1	0	0	513	514	508	601	30	34	
5	1	1	0	0	512	513	508	600	30	34	
6	1	1	0	0	510	511	508	601	30	34	
7	1	1	0	0	509	512	508	602	30	34	
8	1	1	0	0	508	512	508	602	31	34	
9	1	1	0	0	509	512	508	602	30	34	
10	1	1	0	0	510	512	507	601	30	34	
11	1	1	0	0	508	511	509	601	30	34	
12	1	1	0	0	507	512	509	601	30	34	
13	1	1	0	0	507	514	510	601	30	34	
14	1	1	0	0	508	512	512	601	30	34	
15	1	1	0	0	508	510	510	601	30	34	
0	1	1	0	0	507	512	508	601	31	34	
1	1	1	0	0	510	513	509	602	30	34	
2	1	1	0	0	513	511	510	601	30	34	
3	1	1	0	0	510	514	509	601	30	34	
4	1	1	0	0	510	515	509	600	30	34	
5	1	1	0	0	512	513	508	601	30	34	
6	1	1	0	0	512	515	508	602	30	34	
7	1	1	0	0	513	514	509	601	30	34	
8	1	1	0	0	512	514	509	602	31	34	
9	1	1	0	0	513	513	508	601	30	34	
10	1	1	0	0	511	513	508	601	30	34	
11	1	1	0	0	510	513	507	601	30	34	
12	1	1	0	0	510	514	508	600	30	34	
13	1	1	0	0	510	513	509	600	30	34	
14	1	1	0	0	507	512	507	601	30	34	
15	1	1	0	0	508	511	508	602	30	34	
0	1	1	0	0	505	513	509	601	31	34	
1	1	1	0	0	507	512	512	601	30	34	
2	1	1	0	0	507	514	510	601	30	34	
3	1	1	0	0	505	512	508	601	30	34	
4	1	1	0	0	510	512	511	601	30	34	
5	1	1	0	0	508	515	510	601	30	34	
6	1	1	0	0	510	516	510	600	30	34	
7	1	1	0	0	512	515	511	601	30	34	
8	1	1	0	0	511	514	509	602	31	34	
9	1	1	0	0	511	514	511	601	30	34	
10	1	1	0	0	513	513	509	602	30	34	
11	1	1	0	0	515	515	508	601	30	34	
12	1	1	0	0	514	514	507	602	30	34	
13	1	1	0	0	512	513	507	600	30	34	
14	1	1	0	0	512	512	508	601	30	34	
15	1	1	0	0	511	512	508	601	30	34	
0	1	1	0	0	507	513	508	601	31	34	
1	1	1	0	0	508	513	510	603	30	34	
2	1	1	0	0	508	512	507	601	30	34	
3	1	1	0	0	507	511	508	602	30	34	
4	1	1	0	0	507	513	509	601	30	34	
5	1	1	0	0	507	513	509	601	30	34	
6	1	1	0	0	507	512	510	601	30	34	
7	1	1	0	0	507	513	510	601	30	34	
8	1	1	0	0	507	513	509	602	31	34	
9	1	1	0	0	508	511	511	602	30	34	
10	1	1	0	0	511	512	510	602	30	34	
11	1	1	0	0	510	513	509	602	30	34	
12	1	1	0	0	510	513	508	603	30	34	
13	1	1	0	0	513	512	511	602	30	34	
14	1	1	0	0	512	515	508	602	30	34	
15	1	1	0	0	513	513	508	601	30	34	
0	1	1	0	0	513	515	509	602	31	34	
1	1	1	0	0	512	513	507	602	30	34	
2	1	1	0	0	510	513	507	602	30	34	
3	1	1	0	0	511	514	509	602	30	34	
4	1	1	0	0	511	513	509	602	30	34	
5	1	1	0	0	505	513	510	602	30	34	
6	1	1	0	0	508	513	509	602	31	34	
7	1	1	0	0	509	512	511	601	31	34	
8	1	1	0	0	507	510	510	602	31	34	
9	1	1	0	0	511	512	509	602	31	34	
10	1	1	0	0	508	512	510	602	31	34	
11	1	1	0	0	509	511	509	602	31	34	
12	1	1	0	0	509	511	512	602	30	34	
13	1	1	0	0	510	513	512	602	31	34	
14	1	1	0	0	510	512	509	603	31	34	
15	1	1	0	0	509	516	509	603	31	34	
0	1	1	0	0	510	516	508	603	31	34	
1	1	1	0	0	512	514	508	603	31	34	
2	1	1	0	0	515	515	509	602	31	34	
3	1	1	0	0	512	511	507	603	31	34	
4	1	1	0	0	513	510	508	602	30	34	
5	1	1	0	0	513	512	508	602	31	34	
6	1	1	0	0	513	510	506	603	31	34	
7	1	1	0	0	511	512	507	603	31	34	
8	1	1	0	0	509	513	508	603	31	34	
9	1	1	0	0	508	511	509	603	31	34	
10	1	1	0	0	507	515	507	603	31	34	
11	1	1	0	0	507	511	511	603	31	34	
12	1	1	0	0	506	513	511	603	30	34	
13	1	1	0	0	508	512	512	603	31	34	
14	1	1	0	0	507	512	509	604	31	34	
15	1	1	0	0	507	512	509	603	31	34	
0	1	1	0	0	506	512	509	604	31	34	
1	1	1	0	0	509	513	511	604	31	34	
2	1	1	0	0	510	513	511	603	31	34	
3	1	1	0	0	511	515	511	603	31	34	
4	1	1	0	0	513	514	507	604	30	34	
5	1	1	0	0	512	514	509	603	31	34	
6	1	1	0	0	513	514	509	604	31	34	
7	1	1	0	0	513	511	509	604	31	34	
8	1	1	0	0	513	513	508	604	31	34	
9	1	1	0	0	514	515	508	604	31	34	
10	1	1	0	0	512	513	508	603	31	34	
11	1	1	0	0	511	513	506	603	31	34	
12	1	1	0	0	509	512	508	603	30	34	
13	1	1	0	0	510	511	510	602	31	34	
14	1	1	0	0	510	513	507	603	31	34	
15	1	1	0	0	509	511	508	603	31	34	
0	1	1	0	0	506	513	511	603	31	34	
1	1	1	0	0	508	511	508	604	31	34	
2	1	1	0	0	509	511	509	604	31	34	
3	1	1	0	0	508	510	508	604	31	34	
4	1	1	0	0	509	512	509	603	30	34	
5	1	1	0	0	508	512	508	603	31	34	
6	1	1	0	0	511	513	510	603	31	34	
7	1	1	0	0	512	513	511	604	31	34	
8	1	1	0	0	513	515	508	604	31	34	
9	1	1	0	0	511	513	508	604	31	34	
10	1	1	0	0	511	514	508	604	31	34	
11	1	1	0	0	511	515	509	604	31	34	
12	1	1	0	0	513	514	507	603	30	34	
13	1	1	0	0	511	514	508	602	31	34	
14	1	1	0	0	513	513	507	603	31	34	
15	1	1	0	0	510	513	508	603	31	34	
0	1	1	0	0	511	512	508	603	31	34	
1	1	1	0	0	506	512	509	604	31	34	
2	1	1	0	0	506	511	509	604	31	34	
3	1	1	0	0	508	513	510	604	31	34	
4	1	1	0	0	505	511	510	604	30	34	
5	1	1	0	0	506	513	511	602	31	34	
6	1	1	0	0	506	512	510	603	31	34	
7	1	1	0	0	507	513	509	603	30	34	
8	1	1	0	0	510	513	512	603	31	34	
9	1	1	0	0	508	513	509	604	30	34	
10	1	1	0	0	510	516	510	604	30	34	
11	1	1	0	0	511	515	510	604	30	34	
12	1	1	0	0	512	515	511	603	30	34	
13	1	1	0	0	511	515	509	603	30	34	
14	1	1	0	0	511	513	508	603	30	34	
15	1	1	0	0	513	512	510	603	30	34	
0	1	1	0	0	511	512	510	603	31	34	
1	1	1	0	0	511	514	508	604	30	34	
2	1	1	0	0	510	515	509	603	30	34	
3	1	1	0	0	509	513	507	604	30	34	
4	1	1	0	0	510	513	508	603	30	34	
5	1	1	0	0	508	514	508	603	30	34	
6	1	1	0	0	509	512	509	603	30	34	
7	1	1	0	0	508	513	510	603	30	34	
8	1	1	0	0	507	511	509	604	31	34	
9	1	1	0	0	507	511	510	604	30	34	
10	1	1	0	0	507	514	508	604	30	34	
11	1	1	0	0	508	511	508	604	30	34	
12	1	1	0	0	509	513	507	604	30	34	
13	1	1	0	0	509	513	509	603	30	34	
14	1	1	0	0	508	513	510	603	30	34	
15	1	1	0	0	510	515	508	603	30	34	
0	1	1	0	0	512	514	510	603	31	34	
1	1	1	0	0	511	514	507	604	30	34	
2	1	1	0	0	512	512	508	603	30	34	
3	1	1	0	0	512	511	509	604	30	34	
4	1	1	0	0	512	513	508	603	30	34	
5	1	1	0	0	512	512	508	603	30	34	
6	1	1	0	0	510	511	508	603	30	34	
7	1	1	0	0	511	513	508	602	30	34	
8	1	1	0	0	510	514	509	603	31	34	
9	1	1	0	0	509	513	510	603	30	34	
10	1	1	0	0	509	512	509	603	30	34	
11	1	1	0	0	508	512	510	602	30	34	
12	1	1	0	0	507	513	511	603	30	34	
13	1	1	0	0	509	513	510	603	30	34	
14	1	1	0	0	509	512	511	602	30	34	
15	1	1	0	0	510	513	508	603	30	34	
0	1	1	0	0	509	514	510	603	31	34	
1	1	1	0	0	508	513	513	603	30	34	
2	1	1	0	0	510	513	510	602	30	34	
3	1	1	0	0	512	514	508	603	30	34	
4	1	1	0	0	513	515	509	603	30	34	
5	1	1	0	0	511	512	507	603	30	34	
6	1	1	0	0	513	512	509	603	30	34	
7	1	1	0	0	512	511	508	603	30	34	
8	1	1	0	0	512	514	507	604	31	34	
9	1	1	0	0	512	511	507	603	30	34	
10	1	1	0	0	511	512	506	603	30	34	
11	1	1	0	0	510	511	508	603	30	34	
12	1	1	0	0	513	512	508	603	30	34	
13	1	1	0	0	508	513	508	603	30	34	
14	1	1	0	0	507	512	509	603	30	34	
15	1	1	0	0	508	514	508	604	30	34	
0	1	1	0	0	505	511	511	603	31	34	
1	1	1	0	0	508	513	512	603	30	34	
2	1	1	0	0	510	513	509	603	30	34	
3	1	1	0	0	511	513	512	603	30	34	
4	1	1	0	0	509	515	512	603	30	34	
5	1	1	0	0	508	513	512	603	30	34	
6	1	1	0	0	509	515	508	603	30	34	
7	1	1	0	0	511	514	509	603	30	34	
8	1	1	0	0	510	515	510	602	31	34	
9	1	1	0	0	510	512	508	603	30	34	
10	1	1	0	0	511	515	508	602	30	34	
11	1	1	0	0	512	515	508	602	30	34	
12	1	1	0	0	513	512	507	601	30	34	
13	1	1	0	0	512	514	509	601	30	34	
14	1	1	0	0	510	515	509	602	30	34	
15	1	1	0	0	512	513	508	602	30	34	
0	1	1	0	0	512	513	507	602	31	34	
1	1	1	0	0	507	511	509	602	30	34	
2	1	1	0	0	507	512	508	601	30	34	
3	1	1	0	0	506	511	509	601	30	34	
4	1	1	0	0	506	512	510	600	30	34	
5	1	1	0	0	506	511	507	600	30	34	
6	1	1	0	0	507	513	509	601	30	34	
7	1	1	0	0	508	513	511	601	30	34	
8	1	1	0	0	508	511	510	601	30	34	
9	1	1	0	0	508	513	509	601	30	34	
10	1	1	0	0	509	512	510	600	30	34	
11	1	1	0	0	511	516	511	600	30	34	
12	1	1	0	0	510	512	511	600	30	34	
13	1	1	0	0	514	515	509	600	30	34	
14	1	1	0	0	513	514	509	600	30	34	
15	1	1	0	0	513	514	508	601	30	34	
0	1	1	0	0	512	516	508	601	30	34	
1	1	1	0	0	513	512	510	601	30	34	
2	1	1	0	0	512	514	508	600	30	34	
3	1	1	0	0	510	512	508	600	30	34	
4	1	1	0	0	509	513	508	600	30	34	
5	1	1	0	0	511	512	508	600	30	34	
6	1	1	0	0	508	511	509	600	30	34	
7	1	1	0	0	508	511	510	601	30	34	
8	1	1	0	0	507	511	509	600	30	34	
9	1	1	0	0	505	512	511	601	30	34	
10	1	1	0	0	508	512	510	601	30	34	
11	1	1	0	0	508	513	510	601	30	34	
12	1	1	0	0	508	512	507	601	30	34	
13	1	1	0	0	508	514	507	600	30	34	
14	1	1	0	0	510	511	506	601	30	34	
15	1	1	0	0	511	514	510	602	30	34	
0	1	1	0	0	512	515	509	602	30	34	
1	1	1	0	0	512	515	509	603	30	34	
2	1	1	0	0	512	513	507	602	30	34	
3	1	1	0	0	514	513	508	602	30	34	
4	1	1	0	0	512	512	509	602	30	34	
5	1	1	0	0	511	513	509	601	30	34	
6	1	1	0	0	511	512	506	603	30	34	
7	1	1	0	0	509	513	507	603	30	34	
8	1	1	0	0	510	512	510	602	31	34	
9	1	1	0	0	507	511	510	603	30	34	
10	1	1	0	0	508	511	508	603	30	34	
11	1	1	0	0	508	512	511	604	30	34	
12	1	1	0	0	507	511	510	603	30	34	
13	1	1	0	0	506	513	513	602	30	34	
14	1	1	0	0	509	513	510	603	30	34	
15	1	1	0	0	509	513	510	603	30	34	
0	1	1	0	0	510	512	508	603	31	34	
1	1	1	0	0	510	513	509	604	30	34	
2	1	1	0	0	510	514	511	604	30	34	
3	1	1	0	0	509	513	508	604	30	34	
4	1	1	0	0	512	513	508	604	30	34	
5	1	1	0	0	511	515	508	603	30	34	
6	1	1	0	0	511	515	509	603	30	34	
7	1	1	0	0	514	515	509	603	30	34	
8	1	1	0	0	513	515	508	604	31	34	
9	1	1	0	0	511	515	508	603	30	34	
10	1	1	0	0	512	513	507	604	30	34	
11	1	1	0	0	510	513	508	604	30	34	
12	1	1	0	0	509	512	509	604	30	34	
13	1	1	0	0	508	512	509	604	30	34	
14	1	1	0	0	510	512	509	603	30	34	
15	1	1	0	0	509	513	509	604	30	34	
0	1	1	0	0	506	511	508	604	31	34	
1	1	1	0	0	507	512	510	604	30	34	
2	1	1	0	0	508	511	509	604	30	34	
3	1	1	0	0	508	515	508	604	30	34	
4	1	1	0	0	508	514	511	604	30	34	
5	1	1	0	0	509	513	510	603	30	34	
6	1	1	0	0	511	512	510	603	30	34	
7	1	1	0	0	511	513	509	603	30	34	
8	1	1	0	0	511	514	509	603	31	34	
9	1	1	0	0	511	515	508	604	30	34	
10	1	1	0	0	511	514	508	603	30	34	
11	1	1	0	0	512	513	508	604	30	34	
12	1	1	0	0	514	515	510	604	30	34	
13	1	1	0	0	514	516	510	603	30	34	
14	1	1	0	0	513	513	509	603	30	34	
15	1	1	0	0	510	514	511	603	30	34	
0	1	1	0	0	510	510	508	604	31	34	
1	1	1	0	0	508	512	508	604	30	34	
2	1	1	0	0	508	511	507	603	30	34	
3	1	1	0	0	508	511	508	603	30	34	
4	1	1	0	0	508	510	510	603	30	34	
5	1	1	0	0	506	511	508	603	30	34	
6	1	1	0	0	505	513	510	603	30	34	
7	1	1	0	0	508	513	508	603	30	34	
8	1	1	0	0	508	514	511	603	31	34	
9	1	1	0	0	509	513	510	603	30	34	
10	1	1	0	0	511	514	508	602	30	34	
11	1	1	0	0	510	513	508	603	30	34	
12	1	1	0	0	513	514	510	603	30	34	
13	1	1	0	0	512	516	509	602	30	34	
14	1	1	0	0	513	514	507	603	30	34	
15	1	1	0	0	511	515	508	603	30	34	
0	1	1	0	0	512	513	508	602	30	34	
1	1	1	0	0	512	513	508	603	30	34	
2	1	1	0	0	510	514	511	603	30	34	
3	1	1	0	0	513	514	510	603	30	34	
4	1	1	0	0	511	511	508	602	30	34	
5	1	1	0	0	507	511	507	603	30	34	
6	1	1	0	0	510	512	510	604	30	34	
7	1	1	0	0	510	512	511	603	30	34	
8	1	1	0	0	509	512	509	603	30	34	
9	1	1	0	0	505	512	511	604	30	34	
10	1	1	0	0	508	512	508	603	30	34	
11	1	1	0	0	509	515	509	603	30	34	
12	1	1	0	0	510	515	511	603	30	34	
13	1	1	0	0	510	514	510	603	30	34	
14	1	1	0	0	508	512	510	603	30	34	
15	1	1	0	0	511	513	508	603	30	34	
0	1	1	0	0	511	513	508	603	30	34	
1	1	1	0	0	512	515	508	603	30	34	
2	1	1	0	0	512	512	510	603	30	34	
3	1	1	0	0	511	513	509	603	30	34	
4	1	1	0	0	512	516	508	604	30	34	
5	1	1	0	0	511	513	507	603	30	34	
6	1	1	0	0	511	513	507	603	30	34	
7	1	1	0	0	509	513	509	603	30	34	
8	1	1	0	0	509	511	510	603	30	34	
9	1	1	0	0	507	512	510	604	30	34	
10	1	1	0	0	505	511	507	603	30	34	
11	1	1	0	0	507	513	510	604	30	34	
12	1	1	0	0	510	511	509	604	30	34	
13	1	1	0	0	509	513	509	603	30	34	
14	1	1	0	0	508	512	509	604	30	34	
15	1	1	0	0	507	512	511	604	30	34	
0	1	1	0	0	507	514	512	604	30	34	
1	1	1	0	0	508	512	510	603	30	34	
2	1	1	0	0	511	514	508	603	30	34	
3	1	1	0	0	508	514	510	603	30	34	
4	1	1	0	0	510	512	508	603	30	34	
5	1	1	0	0	513	512	508	603	30	34	
6	1	1	0	0	512	513	509	604	30	34	
7	1	1	0	0	513	516	508	604	30	34	
8	1	1	0	0	511	515	508	604	31	34	
9	1	1	0	0	514	513	507	604	30	34	
10	1	1	0	0	510	513	508	603	30	34	
11	1	1	0	0	510	514	509	603	30	34	
12	1	1	0	0	511	511	509	603	30	34	
13	1	1	0	0	511	512	508	602	30	34	
14	1	1	0	0	511	511	509	603	30	34	
15	1	1	0	0	509	514	509	604	30	34	
0	1	1	0	0	507	512	512	604	30	34	
1	1	1	0	0	507	510	509	604	30	34	
2	1	1	0	0	507	513	508	603	30	34	
3	1	1	0	0	509	510	508	603	30	34	
4	1	1	0	0	510	513	508	603	30	34	
5	1	1	0	0	508	515	509	603	30	34	
6	1	1	0	0	511	513	509	604	30	34	
7	1	1	0	0	509	515	508	604	30	34	
8	1	1	0	0	511	514	510	604	31	34	
9	1	1	0	0	514	513	508	604	30	34	
10	1	1	0	0	513	513	510	604	30	34	
11	1	1	0	0	511	513	510	603	30	34	
12	1	1	0	0	511	513	510	603	30	34	
13	1	1	0	0	512	513	506	603	30	34	
14	1	1	0	0	513	512	506	603	30	34	
15	1	1	0	0	510	515	509	603	30	34	
0	1	1	0	0	509	511	507	604	31	34	
1	1	1	0	0	507	512	509	604	30	34	
2	1	1	0	0	509	513	509	604	30	34	
3	1	1	0	0	509	513	508	604	30	34	
4	1	1	0	0	507	513	511	603	30	34	
5	1	1	0	0	505	510	512	603	30	34	
6	1	1	0	0	506	512	512	604	30	34	
7	1	1	0	0	507	513	509	604	30	34	
8	1	1	0	0	508	513	509	604	31	34	
9	1	1	0	0	509	512	508	604	30	34	
10	1	1	0	0	509	512	508	604	30	34	
11	1	1	0	0	511	513	508	604	30	34	
12	1	1	0	0	513	513	508	604	30	34	
13	1	1	0	0	512	515	510	603	30	34	
14	1	1	0	0	512	516	508	603	30	34	
15	1	1	0	0	512	513	506	604	30	34	
0	1	1	0	0	511	513	506	604	31	34	
1	1	1	0	0	512	513	507	604	30	34	
2	1	1	0	0	509	512	507	604	30	34	
3	1	1	0	0	510	512	510	604	30	34	
4	1	1	0	0	510	515	509	605	30	34	
5	1	1	0	0	508	512	510	604	30	34	
6	1	1	0	0	508	513	508	604	30	34	
7	1	1	0	0	508	513	509	604	30	34	
8	1	1	0	0	509	512	509	604	31	34	
9	1	1	0	0	508	510	511	604	30	34	
10	1	1	0	0	508	513	509	604	30	34	
11	1	1	0	0	507	514	508	604	30	34	
12	1	1	0	0	508	513	508	605	30	34	
13	1	1	0	0	509	512	508	604	30	34	
14	1	1	0	0	510	511	510	604	30	34	
15	1	1	0	0	513	516	509	604	30	34	
0	1	1	0	0	511	515	508	604	31	34	
1	1	1	0	0	513	513	511	604	30	34	
2	1	1	0	0	512	513	510	603	30	34	
3	1	1	0	0	512	513	508	604	30	34	
4	1	1	0	0	510	514	509	604	30	34	
5	1	1	0	0	510	512	510	603	30	34	
6	1	1	0	0	512	513	510	604	30	34	
7	1	1	0	0	510	512	507	604	30	34	
8	1	1	0	0	512	513	508	604	31	34	
9	1	1	0	0	510	512	507	604	30	34	
10	1	1	0	0	509	513	507	604	30	34	
11	1	1	0	0	507	512	509	604	30	34	
12	1	1	0	0	507	511	509	604	30	34	
13	1	1	0	0	508	510	511	603	30	34	
14	1	1	0	0	508	512	511	603	30	34	
15	1	1	0	0	509	512	512	603	30	34	
0	1	1	0	0	509	513	511	604	31	34	
1	1	1	0	0	507	514	509	603	30	34	
2	1	1	0	0	510	514	510	603	30	34	
3	1	1	0	0	511	513	508	603	30	34	
4	1	1	0	0	512	513	508	603	30	34	
5	1	1	0	0	512	515	507	602	30	34	
6	1	1	0	0	512	514	508	603	30	34	
7	1	1	0	0	510	512	508	603	30	34	
8	1	1	0	0	511	514	509	603	31	34	
9	1	1	0	0	511	517	508	602	30	34	
10	1	1	0	0	513	513	509	602	30	34	
11	1	1	0	0	513	513	509	602	30	34	
12	1	1	0	0	510	513	509	603	30	34	
13	1	1	0	0	508	513	511	601	30	34	
14	1	1	0	0	509	511	508	603	30	34	
15	1	1	0	0	506	511	510	603	30	34	
0	1	1	0	0	505	512	510	603	31	34	
1	1	1	0	0	506	511	509	603	30	34	
2	1	1	0	0	508	512	510	602	30	34	
3	1	1	0	0	506	513	509	602	30	34	
4	1	1	0	0	509	514	508	602	30	34	
5	1	1	0	0	506	512	508	602	30	34	
6	1	1	0	0	509	515	508	603	30	34	
7	1	1	0	0	513	513	508	604	30	34	
8	1	1	0	0	511	512	509	604	31	34	
9	1	1	0	0	512	515	505	604	30	34	
10	1	1	0	0	512	515	510	603	30	34	
11	1	1	0	0	512	514	511	604	30	34	
12	1	1	0	0	514	513	510	604	30	34	
13	1	1	0	0	513	515	509	603	30	34	
14	1	1	0	0	513	514	509	604	30	34	
15	1	1	0	0	510	512	507	604	30	34	
0	1	1	0	0	509	510	509	604	31	34	
1	1	1	0	0	510	510	508	605	30	34	
2	1	1	0	0	509	511	508	604	30	34	
3	1	1	0	0	507	511	508	604	30	34	
4	1	1	0	0	507	512	509	604	30	34	
5	1	1	0	0	508	510	510	604	30	34	
6	1	1	0	0	508	512	511	605	30	34	
7	1	1	0	0	508	512	510	605	30	34	
8	1	1	0	0	509	513	511	606	31	34	
9	1	1	0	0	511	512	512	606	30	34	
10	1	1	0	0	509	515	511	605	30	34	
11	1	1	0	0	511	517	511	606	30	34	
12	1	1	0	0	510	516	508	605	30	34	
13	1	1	0	0	513	513	508	605	30	34	
14	1	1	0	0	514	514	510	606	30	34	
15	1	1	0	0	513	514	510	606	30	34	
0	1	1	0	0	511	515	508	606	30	34	
1	1	1	0	0	511	513	509	606	30	34	
2	1	1	0	0	511	513	510	606	30	34	
3	1	1	0	0	510	511	510	605	30	34	
4	1	1	0	0	508	510	508	605	30	34	
5	1	1	0	0	508	511	508	604	30	34	
6	1	1	0	0	509	511	509	605	30	34	
7	1	1	0	0	508	511	509	604	30	34	
8	1	1	0	0	505	511	509	604	30	34	
9	1	1	0	0	508	511	509	605	30	34	
10	1	1	0	0	510	513	508	605	30	34	
11	1	1	0	0	506	512	510	604	30	34	
12	1	1	0	0	508	512	510	604	30	34	
13	1	1	0	0	508	515	509	603	30	34	
14	1	1	0	0	510	514	510	603	30	34	
15	1	1	0	0	511	517	510	604	30	34	
0	1	1	0	0	512	513	509	604	30	34	
1	1	1	0	0	512	511	511	605	30	34	
2	1	1	0	0	512	515	510	605	30	34	
3	1	1	0	0	512	512	509	604	30	34	
4	1	1	0	0	513	513	507	604	29	34	
5	1	1	0	0	511	514	507	603	30	34	
6	1	1	0	0	512	514	507	604	29	34	
7	1	1	0	0	510	513	507	604	29	34	
8	1	1	0	0	510	514	510	605	30	34	
9	1	1	0	0	507	513	508	606	29	34	
10	1	1	0	0	509	511	510	606	29	34	
11	1	1	0	0	507	512	508	605	29	34	
12	1	1	0	0	509	514	508	605	29	34	
13	1	1	0	0	507	511	511	604	29	34	
14	1	1	0	0	508	514	509	604	29	34	
15	1	1	0	0	506	515	507	606	29	34	
0	1	1	0	0	509	512	509	607	29	34	
1	1	1	0	0	510	512	512	607	29	34	
2	1	1	0	0	510	515	511	607	29	34	
3	1	1	0	0	512	514	511	607	29	34	
4	1	1	0	0	513	514	514	606	28	34	
5	1	1	0	0	511	513	512	606	29	35	
6	1	1	0	0	513	512	509	606	29	35	
7	1	1	0	0	513	514	508	607	29	35	
8	1	1	0	0	511	512	509	607	29	34	
9	1	1	0	0	512	512	508	608	28	34	
10	1	1	0	0	509	514	509	608	28	34	
11	1	1	0	0	510	513	506	608	28	34	
12	1	1	0	0	511	513	506	609	28	34	
13	1	1	0	0	509	511	507	608	28	34	
14	1	1	0	0	508	509	512	609	28	35	
15	1	1	0	0	507	513	512	609	28	35	
0	1	1	0	0	506	514	511	609	28	35	
1	1	1	0	0	505	513	509	609	28	35	
2	1	1	0	0	506	513	510	609	28	35	
3	1	1	0	0	506	512	508	609	28	35	
4	1	1	0	0	507	514	511	609	27	35	
5	1	1	0	0	508	514	512	608	28	35	
6	1	1	0	0	509	512	511	609	28	35	
7	1	1	0	0	511	510	509	608	27	35	
8	1	1	0	0	513	512	504	608	28	35	
9	1	1	0	0	512	512	507	607	27	35	
10	1	1	0	0	513	512	501	607	27	35	
11	1	1	0	0	513	515	504	606	27	35	
12	1	1	0	0	512	518	507	606	27	35	
13	1	1	0	0	511	514	510	605	27	35	
14	1	1	0	0	510	515	509	605	27	35	
15	1	1	0	0	510	515	507	605	27	35	
0	1	1	0	0	508	511	509	604	27	35	
1	1	1	0	0	508	512	511	604	27	35	
2	1	1	0	0	508	509	514	605	27	35	
3	1	1	0	0	507	513	510	605	27	35	
4	1	1	0	0	508	511	507	604	26	35	
5	1	1	0	0	506	512	507	603	26	35	
6	1	1	0	0	507	513	511	605	26	35	
7	1	1	0	0	510	513	511	605	26	35	
8	1	1	0	0	511	511	509	605	27	35	
9	1	1	0	0	508	513	510	605	26	35	
10	1	1	0	0	511	513	509	604	26	35	
11	1	1	0	0	511	513	511	605	26	35	
12	1	1	0	0	513	512	510	605	26	35	
13	1	1	0	0	513	513	508	605	26	35	
14	1	1	0	0	514	515	508	605	26	35	
15	1	1	0	0	513	514	510	605	26	35	
0	1	1	0	0	511	513	510	606	26	35	
1	1	1	0	0	513	514	507	605	26	35	
2	1	1	0	0	510	512	508	605	26	35	
3	1	1	0	0	509	513	511	605	26	35	
4	1	1	0	0	507	516	508	604	25	35	
5	1	1	0	0	508	514	510	604	26	35	
6	1	1	0	0	508	511	510	605	26	35	
7	1	1	0	0	508	513	509	605	26	35	
8	1	1	0	0	505	511	510	605	26	35	
9	1	1	0	0	508	512	509	605	26	35	
10	1	1	0	0	508	512	509	604	26	35	
11	1	1	0	0	507	511	508	605	26	35	
12	1	1	0	0	510	511	509	605	25	35	
13	1	1	0	0	510	513	510	605	26	35	
14	1	1	0	0	510	514	509	606	26	36	
15	1	1	0	0	512	515	509	605	26	36	
0	1	1	0	0	511	513	508	606	26	36	
1	1	1	0	0	511	513	508	605	26	36	
2	1	1	0	0	513	512	509	606	26	36	
3	1	1	0	0	513	513	508	604	26	36	
4	1	1	0	0	515	512	507	605	26	36	
5	1	1	0	0	514	513	507	605	26	36	
6	1	1	0	0	519	511	504	606	26	36	
7	1	1	0	0	513	512	506	606	26	36	
8	1	1	0	0	505	513	510	606	27	36	
9	1	1	0	0	503	513	513	606	26	36	
10	1	1	0	0	502	515	512	607	26	36	
11	1	1	0	0	507	511	512	606	27	36	
12	1	1	0	0	506	510	512	606	26	36	
13	1	1	0	0	505	512	511	606	27	36	
14	1	1	0	0	507	512	506	607	27	36	
15	1	1	0	0	511	510	506	607	27	36	
0	1	1	0	0	510	510	508	607	27	36	
1	1	1	0	0	507	517	509	608	27	36	
2	1	1	0	0	510	519	511	607	27	37	
3	1	1	0	0	510	515	512	607	27	37	
4	1	1	0	0	510	513	511	607	27	37	
5	1	1	0	0	510	515	510	607	27	37	
6	1	1	0	0	511	520	505	607	27	37	
7	1	1	0	0	512	516	504	608	27	37	
8	1	1	0	0	513	515	506	608	28	37	
9	1	1	0	0	514	511	507	608	28	37	
10	1	1	0	0	513	512	504	608	28	37	
11	1	1	0	0	511	513	508	608	28	37	
12	1	1	0	0	511	512	509	608	27	37	
13	1	1	0	0	512	510	507	607	28	37	
14	1	1	0	0	511	511	505	608	28	37	
15	1	1	0	0	507	511	510	608	28	37	
0	1	1	0	0	506	512	509	608	28	37	
1	1	1	0	0	504	515	509	609	28	37	
2	1	1	0	0	505	514	509	608	28	37	
3	1	1	0	0	507	512	507	608	28	37	
4	1	1	0	0	508	512	513	608	28	37	
5	1	1	0	0	509	513	513	608	28	37	
6	1	1	0	0	511	513	508	608	28	37	
7	1	1	0	0	513	514	510	608	28	37	
8	1	1	0	0	513	513	511	609	29	37	
9	1	1	0	0	512	515	510	609	28	37	
10	1	1	0	0	511	513	512	609	28	37	
11	1	1	0	0	512	513	510	608	28	37	
12	1	1	0	0	513	515	508	608	28	37	
13	1	1	0	0	511	513	507	607	28	37	
14	1	1	0	0	513	512	507	608	28	37	
15	1	1	0	0	512	510	507	608	28	37	
0	1	1	0	0	509	511	508	608	29	37	
1	1	1	0	0	508	513	508	608	28	37	
2	1	1	0	0	507	512	509	608	28	37	
3	1	1	0	0	508	515	508	607	28	37	
4	1	1	0	0	508	513	509	607	28	37	
5	1	1	0	0	508	511	510	606	28	37	
6	1	1	0	0	505	513	511	607	28	37	
7	1	1	0	0	507	511	510	606	28	37	
8	1	1	0	0	506	515	508	607	29	37	
9	1	1	0	0	510	513	511	607	28	37	
10	1	1	0	0	508	513	509	607	28	37	
11	1	1	0	0	512	514	509	607	28	37	
12	1	1	0	0	513	513	508	607	28	37	
13	1	1	0	0	513	515	511	606	28	37	
14	1	1	0	0	514	514	506	606	28	37	
15	1	1	0	0	513	514	506	605	28	37	
0	1	1	0	0	513	513	509	606	29	37	
1	1	1	0	0	513	512	508	606	28	37	
2	1	1	0	0	511	511	508	606	28	37	
3	1	1	0	0	510	515	510	606	28	37	
4	1	1	0	0	508	513	508	606	28	37	
5	1	1	0	0	508	512	510	605	29	37	
6	1	1	0	0	508	512	510	605	29	37	
7	1	1	0	0	506	512	508	605	29	37	
8	1	1	0	0	506	512	510	606	29	37	
9	1	1	0	0	507	510	510	605	29	37	
10	1	1	0	0	507	512	511	605	29	37	
11	1	1	0	0	505	510	511	605	29	37	
12	1	1	0	0	508	512	511	605	28	37	
13	1	1	0	0	510	513	511	605	29	37	
14	1	1	0	0	508	513	510	605	29	37	
15	1	1	0	0	509	515	511	605	29	37	
0	1	1	0	0	513	516	511	605	29	37	
1	1	1	0	0	514	514	510	606	29	37	
2	1	1	0	0	512	515	508	606	29	37	
3	1	1	0	0	513	513	506	606	29	37	
4	1	1	0	0	516	516	509	606	29	37	
5	1	1	0	0	512	514	505	606	29	37	
6	1	1	0	0	512	514	507	606	29	37	
7	1	1	0	0	510	515	508	605	30	37	
8	1	1	0	0	510	512	509	605	30	37	
9	1	1	0	0	511	513	509	606	30	37	
10	1	1	0	0	508	512	511	606	30	37	
11	1	1	0	0	508	511	508	606	30	37	
12	1	1	0	0	507	514	509	607	29	37	
13	1	1	0	0	506	513	510	606	30	37	
14	1	1	0	0	506	513	509	607	30	37	
15	1	1	0	0	506	513	511	607	30	37	
0	1	1	0	0	508	511	510	606	30	37	
1	1	1	0	0	511	513	509	606	30	37	
2	1	1	0	0	508	514	509	607	30	37	
3	1	1	0	0	512	514	508	607	30	37	
4	1	1	0	0	511	512	509	607	30	37	
5	1	1	0	0	512	517	510	607	30	37	
6	1	1	0	0	512	516	511	608	30	37	
7	1	1	0	0	515	512	509	607	30	37	
8	1	1	0	0	512	513	507	606	31	37	
9	1	1	0	0	511	514	508	607	30	37	
10	1	1	0	0	511	515	506	607	30	37	
11	1	1	0	0	512	513	508	606	30	37	
12	1	1	0	0	509	513	507	606	30	37	
13	1	1	0	0	507	512	508	605	30	37	
14	1	1	0	0	506	512	509	605	30	37	
15	1	1	0	0	506	513	511	605	30	37	
0	1	1	0	0	505	509	507	604	30	37	
1	1	1	0	0	507	512	508	604	30	37	
2	1	1	0	0	507	513	508	602	30	37	
3	1	1	0	0	505	512	511	602	30	37	
4	1	1	0	0	507	513	510	602	30	37	
5	1	1	0	0	509	514	510	601	30	37	
6	1	1	0	0	508	514	510	601	30	37	
7	1	1	0	0	511	512	511	601	30	37	
8	1	1	0	0	512	513	510	600	30	37	
9	1	1	0	0	511	512	511	600	30	37	
10	1	1	0	0	513	511	509	599	30	37	
11	1	1	0	0	511	513	511	599	30	37	
12	1	1	0	0	513	513	511	598	30	37	
13	1	1	0	0	512	513	509	597	30	36	
14	1	1	0	0	510	515	510	598	30	36	
15	1	1	0	0	508	513	508	596	30	36	
0	1	1	0	0	508	512	510	596	30	36	
1	1	1	0	0	507	515	510	596	30	36	
2	1	1	0	0	507	513	510	596	30	36	
3	1	1	0	0	506	514	511	596	30	36	
4	1	1	0	0	507	512	508	596	30	36	
5	1	1	0	0	508	511	509	595	30	36	
6	1	1	0	0	506	514	510	597	30	36	
7	1	1	0	0	504	513	511	598	30	35	
8	1	1	0	0	505	514	510	598	31	35	
9	1	1	0	0	507	512	512	598	31	35	
10	1	1	0	0	511	512	510	598	31	35	
11	1	1	0	0	511	513	510	599	31	35	
12	1	1	0	0	512	512	511	599	30	35	
13	1	1	0	0	512	512	510	599	31	35	
14	1	1	0	0	512	515	508	600	31	35	
15	1	1	0	0	513	514	508	600	31	35	
0	1	1	0	0	513	512	509	600	31	35	
1	1	1	0	0	513	513	508	600	31	35	
2	1	1	0	0	513	513	508	599	31	35	
3	1	1	0	0	511	513	507	600	31	35	
4	1	1	0	0	510	512	508	599	31	35	
5	1	1	0	0	507	514	509	598	31	35	
6	1	1	0	0	509	511	509	600	31	35	
7	1	1	0	0	508	514	506	599	31	35	
8	1	1	0	0	505	514	510	599	32	34	
9	1	1	0	0	507	512	510	599	32	34	
10	1	1	0	0	506	512	510	598	32	35	
11	1	1	0	0	509	511	509	597	32	34	
12	1	1	0	0	508	513	509	596	31	35	
13	1	1	0	0	508	513	507	596	32	35	
14	1	1	0	0	510	515	509	596	32	35	
15	1	1	0	0	511	515	508	596	32	35	
0	1	1	0	0	512	514	508	596	32	35	
1	1	1	0	0	513	514	509	596	32	35	
2	1	1	0	0	513	515	508	595	32	35	
3	1	1	0	0	514	515	508	595	32	35	
4	1	1	0	0	513	515	508	593	31	35	
5	1	1	0	0	513	514	508	593	31	35	
6	1	1	0	0	513	515	508	592	31	35	
7	1	1	0	0	512	510	508	593	31	35	
8	1	1	0	0	512	512	508	592	32	35	
9	1	1	0	0	509	511	508	592	31	35	
10	1	1	0	0	507	511	508	591	31	35	
11	1	1	0	0	510	512	510	591	31	35	
12	1	1	0	0	508	511	510	590	30	35	
13	1	1	0	0	508	512	513	588	31	35	
14	1	1	0	0	507	512	512	589	30	36	
15	1	1	0	0	507	514	511	588	30	36	
0	1	1	0	0	508	514	511	588	30	36	
1	1	1	0	0	510	511	510	588	30	36	
2	1	1	0	0	511	514	508	587	30	36	
3	1	1	0	0	511	516	508	586	29	36	
4	1	1	0	0	512	515	508	585	29	36	
5	1	1	0	0	513	512	508	583	29	36	
6	1	1	0	0	515	511	510	583	29	36	
7	1	1	0	0	517	510	508	583	28	36	
8	1	1	0	0	515	513	509	582	28	36	
9	1	1	0	0	513	518	512	582	28	36	
10	1	1	0	0	513	521	511	581	28	36	
11	1	1	0	0	511	522	510	579	27	36	
12	1	1	0	0	508	524	511	579	27	36	
13	1	1	0	0	507	521	507	577	27	36	
14	1	1	0	0	508	517	506	576	27	36	
15	1	1	0	0	504	511	503	575	26	37	
0	1	1	0	0	502	484	504	575	27	37	
1	1	1	0	0	503	480	504	574	26	37	
2	1	1	0	0	504	490	507	572	26	37	
3	1	1	0	0	504	504	509	572	26	37	
4	1	1	0	0	505	517	509	570	25	37	
5	1	1	0	0	505	519	510	568	25	37	
6	1	1	0	0	508	515	516	568	25	37	
7	1	1	0	0	510	516	512	567	25	37	
8	1	1	0	0	511	515	511	566	25	37	
9	1	1	0	0	512	519	513	566	24	37	
10	1	1	0	0	512	520	510	564	24	37	
11	1	1	0	0	513	519	509	563	24	37	
12	1	1	0	0	514	518	509	562	23	37	
13	1	1	0	0	516	515	507	561	24	37	
14	1	1	0	0	513	513	509	560	24	37	
15	1	1	0	0	513	511	508	559	23	37	
0	1	1	0	0	511	515	510	559	24	37	
1	1	1	0	0	510	512	509	558	23	37	
2	1	1	0	0	508	513	508	558	23	37	
3	1	1	0	0	508	515	509	558	23	37	
4	1	1	0	0	509	512	508	556	23	37	
5	1	1	0	0	510	513	511	555	23	37	
6	1	1	0	0	511	512	510	556	23	37	
7	1	1	0	0	509	508	508	556	23	37	
8	1	1	0	0	505	510	509	556	23	37	
9	1	1	0	0	507	513	509	557	23	37	
10	1	1	0	0	509	512	511	557	23	37	
11	1	1	0	0	506	519	511	558	23	37	
12	1	1	0	0	508	516	508	559	23	37	
13	1	1	0	0	513	512	508	559	23	37	
14	1	1	0	0	517	513	506	560	23	37	
15	1	1	0	0	516	514	507	560	23	37	
0	1	1	0	0	514	517	505	562	24	37	
1	1	1	0	0	514	520	506	563	23	37	
2	1	1	0	0	512	515	508	564	24	37	
3	1	1	0	0	510	515	509	565	24	37	
4	1	1	0	0	511	511	509	566	24	37	
5	1	1	0	0	511	506	508	567	24	37	
6	1	1	0	0	510	504	508	568	24	37	
7	1	1	0	0	509	508	508	569	25	37	
8	1	1	0	0	507	511	508	571	25	37	
9	1	1	0	0	508	511	511	572	25	37	
10	1	1	0	0	507	512	510	573	25	37	
11	1	1	0	0	507	514	507	575	25	37	
12	1	1	0	0	507	515	510	576	25	37	
13	1	1	0	0	509	515	509	577	26	37	
14	1	1	0	0	510	512	509	578	26	37	
15	1	1	0	0	513	517	509	580	27	37	
0	1	1	0	0	514	517	509	581	27	37	
1	1	1	0	0	512	514	510	583	27	37	
2	1	1	0	0	515	514	511	583	27	37	
3	1	1	0	0	514	514	510	584	27	37	
4	1	1	0	0	513	512	510	586	27	37	
5	1	1	0	0	512	506	511	588	28	37	
6	1	1	0	0	511	509	509	588	28	37	
7	1	1	0	0	505	515	510	590	29	37	
8	1	1	0	0	506	517	510	590	29	37	
9	1	1	0	0	507	517	511	592	29	37	
10	1	1	0	0	505	514	509	593	29	37	
11	1	1	0	0	505	512	508	594	30	37	
12	1	1	0	0	505	512	509	595	29	37	
13	1	1	0	0	503	511	511	596	30	37	
14	1	1	0	0	505	511	511	598	30	37	
15	1	1	0	0	503	515	508	600	31	37	
0	1	1	0	0	504	511	511	601	31	37	
1	1	1	0	0	504	510	511	602	31	37	
2	1	1	0	0	503	510	510	604	32	37	
3	1	1	0	0	504	513	511	606	32	37	
4	1	1	0	0	507	514	514	608	32	36	
5	1	1	0	0	505	512	512	608	33	37	
6	1	1	0	0	510	514	511	611	33	37	
7	1	1	0	0	510	513	512	613	33	37	
8	1	1	0	0	510	515	513	614	34	37	
9	1	1	0	0	513	512	512	615	34	37	
10	1	1	0	0	511	513	512	615	34	37	
11	1	1	0	0	510	515	510	616	34	37	
12	1	1	0	0	510	512	512	618	34	37	
13	1	1	0	0	511	511	512	618	35	38	
14	1	1	0	0	511	511	513	619	35	38	
15	1	1	0	0	508	513	510	620	36	38	
0	1	1	0	0	510	510	511	620	36	38	
1	1	1	0	0	508	509	508	620	36	38	
2	1	1	0	0	507	512	509	619	36	39	
3	1	1	0	0	507	515	510	619	36	39	
4	1	1	0	0	509	512	511	619	36	39	
5	1	1	0	0	508	515	509	616	37	39	
6	1	1	0	0	510	515	512	617	37	39	
7	1	1	0	0	513	513	512	616	37	39	
8	1	1	0	0	512	512	509	615	38	39	
9	1	1	0	0	513	511	511	613	38	39	
10	1	1	0	0	512	515	508	611	38	39	
11	1	1	0	0	514	517	508	609	38	39	
12	1	1	0	0	515	522	509	607	38	39	
13	1	1	0	0	515	518	508	604	38	39	
14	1	1	0	0	512	517	508	602	38	39	
15	1	1	0	0	510	517	506	599	38	39	
0	1	1	0	0	510	516	505	596	38	40	
1	1	1	0	0	508	514	508	593	38	40	
2	1	1	0	0	507	513	508	589	38	40	
3	1	1	0	0	508	513	507	585	38	40	
4	1	1	0	0	504	513	507	581	38	40	
5	1	1	0	0	503	512	509	577	38	40	
6	1	1	0	0	504	513	507	574	38	40	
7	1	1	0	0	507	512	506	571	37	40	
8	1	1	0	0	507	512	507	567	37	40	
9	1	1	0	0	510	513	506	563	37	40	
10	1	1	0	0	511	514	509	559	37	40	
11	1	1	0	0	512	513	508	555	36	40	
12	1	1	0	0	514	512	508	551	36	40	
13	1	1	0	0	513	517	507	547	36	40	
14	1	1	0	0	513	515	508	544	36	39	
15	1	1	0	0	514	514	506	541	35	39	
0	1	1	0	0	510	514	507	538	35	39	
1	1	1	0	0	513	513	507	536	35	39	
2	1	1	0	0	511	513	508	532	35	39	
3	1	1	0	0	508	514	504	529	34	39	
4	1	1	0	0	510	512	506	527	34	39	
5	1	1	0	0	506	512	508	525	34	39	
6	1	1	0	0	508	511	508	524	34	39	
7	1	1	0	0	509	513	507	523	33	39	
8	1	1	0	0	508	513	511	522	33	39	
9	1	1	0	0	506	514	512	520	33	39	
10	1	1	0	0	505	512	510	519	33	39	
11	1	1	0	0	508	514	509	518	33	39	
12	1	1	0	0	511	513	511	516	32	39	
13	1	1	0	0	511	513	508	513	32	39	
14	1	1	0	0	512	513	507	513	32	39	
15	1	1	0	0	512	514	510	511	32	39	
0	1	1	0	0	512	515	508	509	32	40	
1	1	1	0	0	513	515	510	508	32	40	
2	1	1	0	0	515	515	507	506	31	40	
3	1	1	0	0	515	516	505	504	31	40	
4	1	1	0	0	514	515	505	502	31	40	
5	1	1	0	0	515	515	507	499	31	40	
6	1	1	0	0	512	513	508	498	31	41	
7	1	1	0	0	511	512	509	496	30	41	
8	1	1	0	0	511	512	508	496	31	41	
9	1	1	0	0	511	513	508	495	30	41	
10	1	1	0	0	508	511	508	494	30	41	
11	1	1	0	0	508	513	510	493	30	41	
12	1	1	0	0	507	513	508	491	29	41	
13	1	1	0	0	505	513	509	490	30	41	
14	1	1	0	0	505	511	510	489	29	41	
15	1	1	0	0	509	507	508	488	29	41	
0	1	1	0	0	508	508	509	487	29	42	
1	1	1	0	0	509	511	509	487	29	42	
2	1	1	0	0	509	513	510	487	29	42	
3	1	1	0	0	511	515	509	487	28	42	
4	1	1	0	0	515	512	510	487	28	42	
5	1	1	0	0	512	514	511	486	28	42	
6	1	1	0	0	516	515	509	488	28	42	
7	1	1	0	0	518	514	508	488	28	43	
8	1	1	0	0	516	513	508	490	28	43	
9	1	1	0	0	517	513	507	493	28	43	
10	1	1	0	0	515	512	508	495	28	43	
11	1	1	0	0	514	511	510	497	28	43	
12	1	1	0	0	512	512	508	500	27	43	
13	1	1	0	0	510	509	511	503	28	43	
14	1	1	0	0	509	507	511	506	28	43	
15	1	1	0	0	508	511	507	509	28	43	
0	1	1	0	0	502	513	501	513	28	43	
1	1	1	0	0	508	513	504	517	28	43	
2	1	1	0	0	508	516	506	521	28	43	
3	1	1	0	0	510	513	508	526	28	43	
4	1	1	0	0	509	513	511	529	28	43	
5	1	1	0	0	510	512	509	533	28	42	
6	1	1	0	0	513	512	513	538	28	42	
7	1	1	0	0	512	512	512	543	28	42	
8	1	1	0	0	515	506	512	546	28	42	
9	1	1	0	0	515	506	514	551	28	42	
10	1	1	0	0	514	515	507	555	28	41	
11	1	1	0	0	515	525	503	561	28	41	
12	1	1	0	0	515	527	506	566	28	41	
13	1	1	0	0	515	519	511	570	28	40	
14	1	1	0	0	517	512	511	575	28	40	
15	1	1	0	0	511	509	507	579	28	40	
0	1	1	0	0	513	510	507	583	28	40	
1	1	1	0	0	509	514	504	588	28	39	
2	1	1	0	0	510	516	500	593	28	39	
3	1	1	0	0	510	510	508	597	28	39	
4	1	1	0	0	504	510	509	601	28	38	
5	1	1	0	0	508	511	508	606	28	38	
6	1	1	0	0	509	512	509	611	28	38	
7	1	1	0	0	507	518	511	615	28	38	
8	1	1	0	0	507	512	512	619	28	37	
9	1	1	0	0	507	512	508	623	28	37	
10	1	1	0	0	508	515	510	626	28	37	
11	1	1	0	0	512	520	507	628	28	36	
12	1	1	0	0	511	519	506	631	28	36	
13	1	1	0	0	513	515	510	633	28	36	
14	1	1	0	0	513	513	510	636	28	35	
15	1	1	0	0	513	512	511	637	29	35	
0	1	1	0	0	514	513	512	638	29	35	
1	1	1	0	0	515	513	512	639	29	35	
2	1	1	0	0	511	513	510	639	29	34	
3	1	1	0	0	511	514	507	639	29	34	
4	1	1	0	0	512	513	507	639	28	34	
5	1	1	0	0	511	513	509	638	29	33	
6	1	1	0	0	511	513	508	638	29	33	
7	1	1	0	0	507	510	504	636	29	33	
8	1	1	0	0	508	509	506	634	29	33	
9	1	1	0	0	507	510	510	633	29	32	
10	1	1	0	0	506	510	510	630	29	32	
11	1	1	0	0	507	508	504	627	28	32	
12	1	1	0	0	508	509	510	624	28	32	
13	1	1	0	0	504	512	513	620	28	31	
14	1	1	0	0	507	512	513	619	28	31	
15	1	1	0	0	508	511	513	616	28	31	
0	1	1	0	0	510	510	508	613	28	31	
1	1	1	0	0	510	515	512	609	27	31	
2	1	1	0	0	511	514	510	605	27	31	
3	1	1	0	0	515	515	508	601	27	31	
4	1	1	0	0	514	513	508	597	26	31	
5	1	1	0	0	513	514	509	592	27	31	
6	1	1	0	0	511	512	512	589	26	31	
7	1	1	0	0	513	513	508	584	26	31	
8	1	1	0	0	512	510	509	579	26	31	
9	1	1	0	0	511	504	518	574	26	31	
10	1	1	0	0	510	511	519	569	25	31	
11	1	1	0	0	510	516	510	564	25	31	
12	1	1	0	0	508	519	513	558	25	31	
13	1	1	0	0	507	521	516	554	25	31	
14	1	1	0	0	504	516	515	550	25	30	
15	1	1	0	0	507	510	515	544	25	30	
0	1	1	0	0	510	511	503	540	25	31	
1	1	1	0	0	507	517	502	535	24	30	
2	1	1	0	0	505	511	499	530	24	31	
3	1	1	0	0	508	510	495	524	24	31	
4	1	1	0	0	511	508	504	521	24	31	
5	1	1	0	0	510	514	521	517	24	31	
6	1	1	0	0	511	512	523	512	24	31	
7	1	1	0	0	516	506	516	510	24	31	
8	1	1	0	0	511	508	518	506	24	31	
9	1	1	0	0	512	510	518	504	24	31	
10	1	1	0	0	515	512	521	500	24	31	
11	1	1	0	0	513	508	494	497	24	31	
12	1	1	0	0	512	510	478	496	24	31	
13	1	1	0	0	512	513	478	493	24	31	
14	1	1	0	0	512	508	487	492	24	32	
15	1	1	0	0	507	499	512	491	24	32	
0	1	1	0	0	512	494	510	488	25	32	
1	1	1	0	0	508	503	510	488	25	32	
2	1	1	0	0	501	520	515	487	25	33	
3	1	1	0	0	495	540	512	487	25	33	
4	1	1	0	0	498	538	500	485	24	33	
5	1	1	0	0	505	522	494	485	25	33	
6	1	1	0	0	507	516	511	487	25	34	
7	1	1	0	0	504	516	514	487	25	34	
8	1	1	0	0	510	517	511	488	25	34	
9	1	1	0	0	515	514	512	491	25	34	
10	1	1	0	0	516	515	511	491	25	35	
11	1	1	0	0	515	512	510	494	25	35	
12	1	1	0	0	516	510	506	496	25	35	
13	1	1	0	0	515	512	510	497	25	36	
14	1	1	0	0	512	512	512	500	25	36	
15	1	1	0	0	514	512	513	503	25	36	
0	1	1	0	0	513	513	513	507	26	36	
1	1	1	0	0	510	509	513	509	25	36	
2	1	1	0	0	511	512	508	511	25	37	
3	1	1	0	0	510	513	511	512	25	37	
4	1	1	0	0	509	511	514	514	25	37	
5	1	1	0	0	507	512	515	516	25	38	
6	1	1	0	0	507	512	513	519	25	38	
7	1	1	0	0	504	514	514	520	25	38	
8	1	1	0	0	507	511	513	523	26	38	
9	1	1	0	0	508	513	511	524	25	38	
10	1	1	0	0	507	513	511	527	25	38	
11	1	1	0	0	509	516	513	528	25	39	
12	1	1	0	0	510	515	515	529	25	39	
13	1	1	0	0	510	515	515	530	25	39	
14	1	1	0	0	513	517	514	532	25	39	
15	1	1	0	0	514	516	517	533	25	39	
0	1	1	0	0	514	515	518	535	25	39	
1	1	1	0	0	515	513	511	536	24	39	
2	1	1	0	0	516	511	499	537	24	39	
3	1	1	0	0	512	512	497	537	24	40	
4	1	1	0	0	512	513	506	539	24	40	
5	1	1	0	0	508	510	511	539	24	40	
6	1	1	0	0	507	504	511	540	24	40	
7	1	1	0	0	508	507	501	540	24	40	
8	1	1	0	0	505	511	492	540	24	41	
9	1	1	0	0	505	513	491	542	23	41	
10	1	1	0	0	507	512	503	542	23	41	
11	1	1	0	0	504	512	513	542	23	41	
12	1	1	0	0	504	514	514	541	22	41	
13	1	1	0	0	504	513	509	540	23	41	
14	1	1	0	0	508	514	509	540	23	42	
15	1	1	0	0	509	514	514	539	22	42	
0	1	1	0	0	508	516	515	537	23	42	
1	1	1	0	0	508	515	512	537	22	42	
2	1	1	0	0	512	515	508	535	22	43	
3	1	1	0	0	512	513	505	534	22	43	
4	1	1	0	0	512	515	504	533	22	43	
5	1	1	0	0	510	514	504	531	22	43	
6	1	1	0	0	507	516	514	529	22	43	
7	1	1	0	0	504	516	517	527	22	43	
8	1	1	0	0	507	518	515	526	23	44	
9	1	1	0	0	504	515	529	525	22	44	
10	1	1	0	0	503	511	537	523	22	44	
11	1	1	0	0	504	512	527	521	23	44	
12	1	1	0	0	507	512	517	518	22	44	
13	1	1	0	0	508	511	513	516	23	44	
14	1	1	0	0	507	510	504	515	23	44	
15	1	1	0	0	507	509	497	513	23	45	
0	1	1	0	0	508	507	484	511	24	45	
1	1	1	0	0	508	503	485	509	23	45	
2	1	1	0	0	505	498	491	507	24	45	
3	1	1	0	0	505	506	500	505	24	45	
4	1	1	0	0	505	508	505	503	23	45	
5	1	1	0	0	509	510	508	500	24	45	
6	1	1	0	0	509	511	510	499	24	45	
7	1	1	0	0	510	510	515	498	24	45	
8	1	1	0	0	508	514	516	496	24	45	
9	1	1	0	0	510	514	515	494	24	45	
10	1	1	0	0	508	515	516	491	24	46	
11	1	1	0	0	508	517	513	489	24	46	
12	1	1	0	0	505	516	514	488	23	46	
13	1	1	0	0	505	514	508	486	24	46	
14	1	1	0	0	500	512	508	485	24	46	
15	1	1	0	0	502	514	511	483	24	46	
0	1	1	0	0	500	509	509	482	24	46	
1	1	1	0	0	503	510	511	481	24	46	
2	1	1	0	0	502	511	514	481	24	46	
3	1	1	0	0	502	515	515	479	24	46	
4	1	1	0	0	500	519	514	479	23	46	
5	1	1	0	0	502	518	515	478	24	46	
6	1	1	0	0	504	518	514	480	24	46	
7	1	1	0	0	508	516	509	480	24	46	
8	1	1	0	0	508	517	514	481	25	47	
9	1	1	0	0	510	515	513	481	24	47	
10	1	1	0	0	511	516	505	481	25	47	
11	1	1	0	0	511	516	505	481	25	48	
12	1	1	0	0	515	515	505	481	25	48	
13	1	1	0	0	515	513	504	480	25	49	
14	1	1	0	0	513	513	510	480	26	50	
15	1	1	0	0	513	515	508	480	26	50	
0	1	1	0	0	512	515	510	479	26	51	
1	1	1	0	0	510	516	518	478	27	52	
2	1	1	0	0	509	514	513	476	27	52	
3	1	1	0	0	509	516	504	475	27	53	
4	1	1	0	0	508	515	502	472	27	54	
5	1	1	0	0	508	517	507	471	28	54	
6	1	1	0	0	509	512	508	470	29	54	
7	1	1	0	0	510	512	509	468	29	54	
8	1	1	0	0	511	512	510	467	30	54	
9	1	1	0	0	511	514	522	466	30	54	
10	1	1	0	0	511	516	521	464	30	54	
11	1	1	0	0	514	514	512	464	31	54	
12	1	1	0	0	520	514	494	462	31	54	
13	1	1	0	0	521	516	488	461	32	53	
14	1	1	0	0	522	516	496	461	33	53	
15	1	1	0	0	520	516	500	461	33	52	
0	1	1	0	0	519	515	505	462	34	52	
1	1	1	0	0	521	516	504	462	35	51	
2	1	1	0	0	518	515	504	462	36	51	
3	1	1	0	0	519	514	505	461	36	50	
4	1	1	0	0	518	516	504	463	37	49	
5	1	1	0	0	516	513	504	462	38	49	
6	1	1	0	0	515	511	513	464	38	48	
7	1	1	0	0	513	512	512	465	39	48	
8	1	1	0	0	510	510	510	467	40	47	
9	1	1	0	0	508	513	509	470	40	46	
10	1	1	0	0	508	510	508	472	40	46	
11	1	1	0	0	511	513	509	473	41	45	
12	1	1	0	0	509	514	510	476	41	45	
13	1	1	0	0	512	512	509	477	41	44	
14	1	1	0	0	513	513	508	481	41	44	
15	1	1	0	0	514	515	508	484	41	43	
0	1	1	0	0	515	515	507	486	41	43	
1	1	1	0	0	517	515	508	490	41	43	
2	1	1	0	0	515	516	507	492	41	42	
3	1	1	0	0	515	515	505	495	40	42	
4	1	1	0	0	514	513	510	496	40	42	
5	1	1	0	0	511	513	506	497	40	41	
6	1	1	0	0	510	514	508	499	39	41	
7	1	1	0	0	508	512	506	500	39	41	
8	1	1	0	0	509	512	508	502	38	41	
9	1	1	0	0	508	511	507	504	38	40	
10	1	1	0	0	507	512	507	504	37	40	
11	1	1	0	0	506	511	511	504	36	40	
12	1	1	0	0	504	510	510	504	35	40	
13	1	1	0	0	503	511	512	505	35	40	
14	1	1	0	0	503	512	510	505	35	40	
15	1	1	0	0	506	511	513	506	34	39	
0	1	1	0	0	505	513	512	507	34	39	
1	1	1	0	0	504	512	511	508	34	39	
2	1	1	0	0	509	512	511	510	33	39	
3	1	1	0	0	509	515	510	512	33	39	
4	1	1	0	0	511	513	514	512	33	38	
5	1	1	0	0	511	514	514	513	33	38	
6	1	1	0	0	512	515	513	514	32	38	
7	1	1	0	0	513	514	511	516	32	38	
8	1	1	0	0	512	513	512	518	32	37	
9	1	1	0	0	512	514	512	521	32	37	
10	1	1	0	0	511	515	512	521	32	36	
11	1	1	0	0	510	515	510	521	31	36	
12	1	1	0	0	505	516	508	522	31	36	
13	1	1	0	0	508	519	511	521	31	35	
14	1	1	0	0	510	516	509	521	31	35	
15	1	1	0	0	509	517	511	519	30	35	
0	1	1	0	0	507	516	508	517	30	35	
1	1	1	0	0	506	515	507	517	29	35	
2	1	1	0	0	508	515	511	514	29	34	
3	1	1	0	0	505	513	510	511	28	34	
4	1	1	0	0	507	516	511	508	28	34	
5	1	1	0	0	505	513	511	504	28	34	
6	1	1	0	0	508	509	511	501	27	34	
7	1	1	0	0	508	505	509	498	27	34	
8	1	1	0	0	511	508	512	495	26	34	
9	1	1	0	0	512	504	511	492	26	33	
10	1	1	0	0	517	505	507	488	25	33	
11	1	1	0	0	518	509	510	486	25	33	
12	1	1	0	0	516	511	510	484	24	33	
13	1	1	0	0	513	507	509	482	24	33	
14	1	1	0	0	510	513	507	480	24	33	
15	1	1	0	0	508	517	507	478	23	32	
0	1	1	0	0	509	518	507	477	23	32	
1	1	1	0	0	513	516	509	476	23	32	
2	1	1	0	0	515	518	510	474	22	32	
3	1	1	0	0	516	526	513	473	22	32	
4	1	1	0	0	518	523	513	472	22	31	
5	1	1	0	0	514	519	512	471	22	31	
6	1	1	0	0	510	518	511	472	21	31	
7	1	1	0	0	507	530	511	471	21	31	
8	1	1	0	0	505	541	510	471	21	31	
9	1	1	0	0	507	543	508	470	21	31	
10	1	1	0	0	508	542	504	471	20	31	
11	1	1	0	0	504	519	500	472	20	31	
12	1	1	0	0	505	466	494	472	20	31	
13	1	1	0	0	509	422	492	473	20	31	
14	1	1	0	0	501	432	494	474	20	31	
15	1	1	0	0	498	473	502	476	20	31	
0	1	1	0	0	502	505	508	477	20	31	
1	1	1	0	0	504	525	508	480	20	31	
2	1	1	0	0	507	528	508	482	20	31	
3	1	1	0	0	509	527	510	484	20	31	
4	1	1	0	0	509	522	514	487	20	31	
5	1	1	0	0	510	511	510	490	20	31	
6	1	1	0	0	513	512	509	493	20	31	
7	1	1	0	0	511	522	511	495	21	31	
8	1	1	0	0	511	530	513	499	21	31	
9	1	1	0	0	511	531	514	502	21	31	
10	1	1	0	0	511	530	515	505	21	31	
11	1	1	0	0	511	522	510	508	22	31	
12	1	1	0	0	515	519	509	512	22	31	
13	1	1	0	0	513	511	509	514	22	31	
14	1	1	0	0	515	505	510	518	23	31	
15	1	1	0	0	512	504	512	520	23	31	
0	1	1	0	0	513	509	511	523	24	32	
1	1	1	0	0	511	515	506	524	24	32	
2	1	1	0	0	514	515	509	526	24	32	
3	1	1	0	0	518	514	508	527	24	32	
4	1	1	0	0	521	515	510	528	24	32	
5	1	1	0	0	516	521	510	529	24	32	
6	1	1	0	0	512	521	511	529	24	32	
7	1	1	0	0	514	519	511	529	24	32	
8	1	1	0	0	516	516	509	530	25	32	
9	1	1	0	0	511	515	509	530	24	32	
10	1	1	0	0	510	512	509	529	24	32	
11	1	1	0	0	510	507	508	529	24	33	
12	1	1	0	0	507	502	508	528	23	33	
13	1	1	0	0	503	503	508	529	24	33	
14	1	1	0	0	504	508	507	529	24	33	
15	1	1	0	0	503	510	512	529	24	33	
0	1	1	0	0	502	512	512	529	24	33	
1	1	1	0	0	501	511	513	530	23	33	
2	1	1	0	0	504	511	513	529	23	33	
3	1	1	0	0	505	513	512	530	23	33	
4	1	1	0	0	508	512	512	531	23	34	
5	1	1	0	0	511	513	511	531	23	34	
6	1	1	0	0	510	513	511	534	23	34	
7	1	1	0	0	513	514	509	536	24	34	
8	1	1	0	0	511	513	511	537	24	34	
9	1	1	0	0	510	511	510	540	24	34	
10	1	1	0	0	512	515	509	541	25	34	
11	1	1	0	0	512	516	508	543	25	34	
12	1	1	0	0	511	519	510	546	25	34	
13	1	1	0	0	508	516	509	549	26	34	
14	1	1	0	0	510	519	510	551	26	33	
15	1	1	0	0	511	521	513	554	27	33	
0	1	1	0	0	511	526	515	556	28	33	
1	1	1	0	0	509	528	512	558	28	33	
2	1	1	0	0	510	535	512	560	28	33	
3	1	1	0	0	510	521	511	561	29	33	
4	1	1	0	0	513	505	509	563	29	32	
5	1	1	0	0	511	511	506	564	30	32	
6	1	1	0	0	506	535	509	567	30	32	
7	1	1	0	0	505	543	510	569	31	32	
8	1	1	0	0	504	530	506	570	31	32	
9	1	1	0	0	507	512	501	571	32	32	
10	1	1	0	0	504	500	500	572	32	31	
11	1	1	0	0	508	489	502	572	33	31	
12	1	1	0	0	508	469	503	573	33	31	
13	1	1	0	0	508	460	499	575	34	31	
14	1	1	0	0	508	472	500	577	34	30	
15	1	1	0	0	506	499	509	578	35	30	
0	1	1	0	0	507	523	512	580	35	29	
1	1	1	0	0	505	529	511	582	36	29	
2	1	1	0	0	504	533	512	582	36	28	
3	1	1	0	0	502	544	511	583	37	28	
4	1	1	0	0	500	538	507	583	37	28	
5	1	1	0	0	500	502	505	582	39	27	
6	1	1	0	0	501	497	504	580	39	27	
7	1	1	0	0	500	506	507	579	40	27	
8	1	1	0	0	500	503	507	576	41	27	
9	1	1	0	0	504	486	507	574	42	27	
10	1	1	0	0	504	493	510	572	42	27	
11	1	1	0	0	508	508	512	569	43	28	
12	1	1	0	0	510	517	514	568	43	28	
13	1	1	0	0	511	524	515	567	44	28	
14	1	1	0	0	515	521	511	567	45	28	
15	1	1	0	0	519	524	512	568	45	28	
0	1	1	0	0	519	524	512	569	46	28	
1	1	1	0	0	521	521	512	569	46	29	
2	1	1	0	0	521	520	511	569	46	29	
3	1	1	0	0	522	519	510	569	46	29	
4	1	1	0	0	519	519	506	568	46	30	
5	1	1	0	0	519	516	508	567	47	30	
6	1	1	0	0	518	515	510	568	47	30	
7	1	1	0	0	516	513	508	567	47	30	
8	1	1	0	0	512	510	509	566	47	31	
9	1	1	0	0	512	508	507	565	47	31	
10	1	1	0	0	511	508	508	562	47	31	
11	1	1	0	0	508	508	512	560	47	31	
12	1	1	0	0	507	509	512	556	46	31	
13	1	1	0	0	508	509	511	550	46	31	
14	1	1	0	0	505	513	511	547	46	31	
15	1	1	0	0	508	512	512	542	46	30	
0	1	1	0	0	511	512	510	536	46	30	
1	1	1	0	0	513	512	509	530	45	30	
2	1	1	0	0	513	514	509	524	45	30	
3	1	1	0	0	516	513	508	518	45	30	
4	1	1	0	0	515	514	508	511	44	30	
5	1	1	0	0	517	514	509	505	44	31	
6	1	1	0	0	515	512	507	500	44	31	
7	1	1	0	0	515	512	507	496	44	31	
8	1	1	0	0	514	513	505	492	44	31	
9	1	1	0	0	511	512	509	487	43	32	
10	1	1	0	0	508	512	507	483	43	32	
11	1	1	0	0	509	512	507	478	43	32	
12	1	1	0	0	505	510	511	473	42	33	
13	1	1	0	0	505	510	510	468	43	33	
14	1	1	0	0	503	511	510	464	42	33	
15	1	1	0	0	505	510	510	460	42	34	
0	1	1	0	0	505	513	509	457	42	34	
1	1	1	0	0	505	513	511	455	42	35	
2	1	1	0	0	510	515	511	453	42	35	
3	1	1	0	0	512	516	510	450	42	36	
4	1	1	0	0	518	518	511	448	41	36	
5	1	1	0	0	516	515	508	444	41	37	
6	1	1	0	0	518	519	508	441	41	37	
7	1	1	0	0	516	516	506	438	41	38	
8	1	1	0	0	513	517	506	434	41	38	
9	1	1	0	0	513	515	505	430	40	39	
10	1	1	0	0	513	514	507	425	40	39	
11	1	1	0	0	511	516	505	420	40	40	
12	1	1	0	0	508	514	510	413	39	40	
13	1	1	0	0	507	512	510	406	39	40	
14	1	1	0	0	505	510	510	400	39	41	
15	1	1	0	0	500	506	512	394	38	41	
0	1	1	0	0	497	508	516	387	38	42	
1	1	1	0	0	494	512	513	382	38	42	
2	1	1	0	0	494	512	515	375	37	43	
3	1	1	0	0	491	514	516	367	37	44	
4	1	1	0	0	495	516	518	360	36	45	
5	1	1	0	0	497	517	515	351	36	46	
6	1	1	0	0	499	516	515	343	35	47	
7	1	1	0	0	502	516	521	333	35	48	
8	1	1	0	0	504	521	519	325	34	49	
9	1	1	0	0	504	531	519	318	34	50	
10	1	1	0	0	508	530	522	311	33	51	
11	1	1	0	0	510	519	524	305	32	53	
12	1	1	0	0	511	515	518	301	32	54	
13	1	1	0	0	512	513	511	297	31	54	
14	1	1	0	0	511	513	508	297	30	55	
15	1	1	0	0	511	507	510	298	29	55	
0	1	1	0	0	512	500	510	301	29	55	
1	1	1	0	0	513	492	512	305	28	55	
2	1	1	0	0	514	492	509	310	27	55	
3	1	1	0	0	512	496	504	315	26	55	
4	1	1	0	0	513	499	499	322	24	55	
5	1	1	0	0	514	506	499	329	24	55	
6	1	1	0	0	515	512	500	339	23	55	
7	1	1	0	0	517	513	501	349	22	54	
8	1	1	0	0	518	511	507	361	22	53	
9	1	1	0	0	520	510	508	374	21	52	
10	1	1	0	0	519	510	509	387	21	50	
11	1	1	0	0	522	515	512	402	21	49	
12	1	1	0	0	526	525	506	416	20	47	
13	1	1	0	0	530	527	499	431	20	45	
14	1	1	0	0	529	519	501	446	20	44	
15	1	1	0	0	526	518	502	461	20	42	
0	1	1	0	0	519	515	504	476	20	40	
1	1	1	0	0	512	514	504	490	20	39	
2	1	1	0	0	509	510	507	504	20	37	
3	1	1	0	0	505	511	507	519	20	36	
4	1	1	0	0	504	510	512	534	20	34	
5	1	1	0	0	500	510	515	547	20	33	
6	1	1	0	0	498	511	517	561	21	32	
7	1	1	0	0	499	512	513	573	21	31	
8	1	1	0	0	500	512	504	585	22	30	
9	1	1	0	0	504	514	501	596	22	29	
10	1	1	0	0	506	518	502	607	22	28	
11	1	1	0	0	508	519	505	618	22	27	
12	1	1	0	0	509	516	508	627	22	26	
13	1	1	0	0	509	515	508	634	23	25	
14	1	1	0	0	511	523	510	643	23	25	
15	1	1	0	0	515	528	511	648	24	24	
0	1	1	0	0	517	531	509	653	24	23	
1	1	1	0	0	519	530	505	655	24	23	
2	1	1	0	0	523	527	500	658	24	23	
3	1	1	0	0	524	527	502	658	24	22	
4	1	1	0	0	524	527	507	656	24	22	
5	1	1	0	0	523	525	500	654	25	22	
6	1	1	0	0	520	518	504	651	25	22	
7	1	1	0	0	523	519	521	646	25	22	
8	1	1	0	0	520	519	530	641	25	22	
9	1	1	0	0	516	507	544	634	25	22	
10	1	1	0	0	515	502	537	626	24	22	
11	1	1	0	0	517	506	505	619	24	22	
12	1	1	0	0	517	503	480	610	24	22	
13	1	1	0	0	514	495	480	601	24	22	
14	1	1	0	0	511	494	460	593	24	22	
15	1	1	0	0	508	499	465	585	23	22	
0	1	1	0	0	505	499	479	577	23	22	
1	1	1	0	0	503	496	508	568	23	23	
2	1	1	0	0	499	500	521	560	22	23	
3	1	1	0	0	501	504	541	553	22	23	
4	1	1	0	0	509	508	552	546	22	23	
5	1	1	0	0	510	503	541	539	22	24	
6	1	1	0	0	515	504	512	534	21	24	
7	1	1	0	0	517	512	512	529	21	24	
8	1	1	0	0	512	501	494	526	21	25	
9	1	1	0	0	512	496	489	524	21	25	
10	1	1	0	0	508	501	505	519	21	26	
11	1	1	0	0	507	512	494	518	21	26	
12	1	1	0	0	508	513	451	515	20	27	
13	1	1	0	0	511	510	441	514	21	27	
14	1	1	0	0	508	509	476	515	20	28	
15	1	1	0	0	504	509	510	514	20	28	
0	1	1	0	0	501	505	524	514	21	29	
1	1	1	0	0	500	505	517	514	20	30	
2	1	1	0	0	502	506	527	513	20	30	
3	1	1	0	0	502	511	535	513	20	31	
4	1	1	0	0	504	512	531	512	19	32	
5	1	1	0	0	509	513	512	510	20	32	
6	1	1	0	0	515	511	501	511	20	33	
7	1	1	0	0	515	509	504	509	20	34	
8	1	1	0	0	512	514	518	508	20	35	
9	1	1	0	0	512	521	524	507	20	35	
10	1	1	0	0	516	526	518	506	20	36	
11	1	1	0	0	521	523	515	504	20	37	
12	1	1	0	0	514	524	510	503	19	37	
13	1	1	0	0	507	521	508	501	20	38	
14	1	1	0	0	511	519	505	499	20	38	
15	1	1	0	0	513	514	507	499	20	39	
0	1	1	0	0	511	518	514	498	20	39	
1	1	1	0	0	512	518	514	498	20	40	
2	1	1	0	0	512	516	515	497	20	40	
3	1	1	0	0	507	519	518	497	20	41	
4	1	1	0	0	508	515	507	497	20	41	
5	1	1	0	0	506	515	508	497	20	42	
6	1	1	0	0	506	515	517	499	20	42	
7	1	1	0	0	505	514	517	499	20	43	
8	1	1	0	0	504	515	514	501	21	43	
9	1	1	0	0	508	516	513	502	20	44	
10	1	1	0	0	510	513	504	504	20	44	
11	1	1	0	0	507	515	497	505	20	45	
12	1	1	0	0	506	518	504	506	20	45	
13	1	1	0	0	508	515	513	507	21	46	
14	1	1	0	0	510	514	512	508	21	46	
15	1	1	0	0	509	514	511	508	21	47	
0	1	1	0	0	511	515	510	509	21	47	
1	1	1	0	0	512	511	511	511	21	47	
2	1	1	0	0	508	511	513	511	21	48	
3	1	1	0	0	508	509	511	510	21	48	
4	1	1	0	0	507	509	513	511	20	49	
5	1	1	0	0	509	508	512	511	21	49	
6	1	1	0	0	505	505	508	512	21	50	
7	1	1	0	0	502	508	512	511	21	50	
8	1	1	0	0	502	510	510	511	21	51	
9	1	1	0	0	502	510	511	510	21	51	
10	1	1	0	0	500	512	511	510	21	51	
11	1	1	0	0	504	516	509	509	21	52	
12	1	1	0	0	505	514	512	509	20	52	
13	1	1	0	0	507	513	512	507	21	53	
14	1	1	0	0	508	511	511	506	21	53	
15	1	1	0	0	510	511	514	505	21	54	
0	1	1	0	0	514	513	508	504	21	54	
1	1	1	0	0	515	516	510	503	21	55	
2	1	1	0	0	516	516	507	500	21	55	
3	1	1	0	0	515	515	506	500	21	55	
4	1	1	0	0	513	517	510	498	21	55	
5	1	1	0	0	515	514	508	496	21	55	
6	1	1	0	0	515	512	512	495	21	55	
7	1	1	0	0	513	510	508	494	22	55	
8	1	1	0	0	512	508	510	494	22	55	
9	1	1	0	0	513	504	511	493	22	55	
10	1	1	0	0	516	494	514	492	22	55	
11	1	1	0	0	515	492	516	491	22	55	
12	1	1	0	0	514	501	512	492	22	55	
13	1	1	0	0	510	516	512	492	23	55	
14	1	1	0	0	507	514	511	494	23	55	
15	1	1	0	0	507	523	509	494	23	55	
0	1	1	0	0	511	540	510	496	24	55	
1	1	1	0	0	507	565	504	498	24	55	
2	1	1	0	0	501	575	499	500	24	55	
3	1	1	0	0	502	535	496	503	24	55	
4	1	1	0	0	509	484	499	505	24	55	
5	1	1	0	0	515	479	505	508	25	55	
6	1	1	0	0	511	502	503	512	25	55	
7	1	1	0	0	510	504	505	515	25	55	
8	1	1	0	0	511	505	505	519	26	55	
9	1	1	0	0	513	509	505	524	26	55	
10	1	1	0	0	514	510	509	527	26	55	
11	1	1	0	0	513	502	509	532	26	54	
12	1	1	0	0	513	497	509	536	26	54	
13	1	1	0	0	510	500	509	540	27	54	
14	1	1	0	0	508	505	508	546	27	53	
15	1	1	0	0	510	509	509	551	27	52	
0	1	1	0	0	509	510	510	555	28	52	
1	1	1	0	0	507	511	509	559	28	51	
2	1	1	0	0	510	512	508	561	28	51	
3	1	1	0	0	507	512	507	564	28	50	
4	1	1	0	0	507	511	509	566	28	50	
5	1	1	0	0	508	512	505	566	29	50	
6	1	1	0	0	508	511	507	568	29	49	
7	1	1	0	0	506	514	504	568	30	49	
8	1	1	0	0	511	515	501	567	30	49	
9	1	1	0	0	513	515	502	567	30	49	
10	1	1	0	0	518	515	503	563	31	49	
11	1	1	0	0	516	517	505	561	31	49	
12	1	1	0	0	517	518	505	556	30	49	
13	1	1	0	0	515	519	505	551	31	50	
14	1	1	0	0	515	517	506	547	31	50	
15	1	1	0	0	516	516	505	541	31	50	
0	1	1	0	0	512	518	503	536	31	50	
1	1	1	0	0	509	516	504	530	31	49	
2	1	1	0	0	508	515	506	524	31	49	
3	1	1	0	0	505	513	505	517	31	49	
4	1	1	0	0	504	516	507	510	30	49	
5	1	1	0	0	505	515	509	503	31	49	
6	1	1	0	0	507	516	509	496	31	48	
7	1	1	0	0	509	516	509	490	31	48	
8	1	1	0	0	505	515	513	484	31	48	
9	1	1	0	0	508	515	512	479	31	47	
10	1	1	0	0	508	515	513	473	31	47	
11	1	1	0	0	515	516	514	467	31	47	
12	1	1	0	0	519	515	512	462	31	46	
13	1	1	0	0	522	515	505	456	31	46	
14	1	1	0	0	523	517	503	451	31	45	
15	1	1	0	0	521	517	507	447	31	45	
0	1	1	0	0	519	518	509	442	32	44	
1	1	1	0	0	519	519	508	438	31	44	
2	1	1	0	0	520	521	510	434	31	43	
3	1	1	0	0	519	519	510	431	32	43	
4	1	1	0	0	519	518	510	428	31	43	
5	1	1	0	0	514	515	510	425	32	42	
6	1	1	0	0	512	511	510	423	32	42	
7	1	1	0	0	512	514	511	422	32	42	
8	1	1	0	0	508	515	510	422	33	41	
9	1	1	0	0	505	514	509	422	33	41	
10	1	1	0	0	501	511	512	422	33	41	
11	1	1	0	0	501	508	516	424	33	41	
12	1	1	0	0	499	509	520	427	33	40	
13	1	1	0	0	496	516	514	428	33	40	
14	1	1	0	0	495	518	499	432	34	40	
15	1	1	0	0	495	517	498	435	34	40	
0	1	1	0	0	495	513	508	440	34	40	
1	1	1	0	0	495	512	509	444	34	40	
2	1	1	0	0	498	516	513	447	34	40	
3	1	1	0	0	500	515	506	452	35	40	
4	1	1	0	0	505	512	508	457	34	40	
5	1	1	0	0	507	510	510	463	35	40	
6	1	1	0	0	509	511	514	469	35	40	
7	1	1	0	0	511	515	511	475	35	40	
8	1	1	0	0	511	511	508	480	36	40	
9	1	1	0	0	513	510	513	486	35	40	
10	1	1	0	0	508	510	512	490	35	40	
11	1	1	0	0	510	507	511	495	36	40	
12	1	1	0	0	510	509	510	500	35	40	
13	1	1	0	0	508	509	513	505	36	40	
14	1	1	0	0	509	512	512	510	36	40	
15	1	1	0	0	509	512	511	514	36	40	
0	1	1	0	0	510	511	511	519	36	40	
1	1	1	0	0	510	511	513	523	35	40	
2	1	1	0	0	510	510	512	527	35	40	
3	1	1	0	0	508	512	516	530	35	40	
4	1	1	0	0	513	511	511	534	35	40	
5	1	1	0	0	513	514	511	537	35	40	
6	1	1	0	0	513	513	511	542	35	40	
7	1	1	0	0	515	511	508	547	35	40	
8	1	1	0	0	513	509	510	552	36	40	
9	1	1	0	0	517	508	511	557	35	40	
10	1	1	0	0	515	515	509	561	35	40	
11	1	1	0	0	512	516	511	565	35	40	
12	1	1	0	0	511	515	511	571	35	40	
13	1	1	0	0	506	515	512	576	35	40	
14	1	1	0	0	505	516	509	583	35	40	
15	1	1	0	0	506	519	511	588	35	40	
0	1	1	0	0	503	519	508	594	35	39	
1	1	1	0	0	503	515	509	599	35	39	
2	1	1	0	0	505	512	510	604	34	39	
3	1	1	0	0	504	514	511	608	34	39	
4	1	1	0	0	506	512	513	613	34	39	
5	1	1	0	0	506	510	513	617	34	39	
6	1	1	0	0	507	511	513	623	34	38	
7	1	1	0	0	510	511	512	628	33	38	
8	1	1	0	0	509	513	512	632	33	38	
9	1	1	0	0	510	510	510	636	33	38	
10	1	1	0	0	511	511	510	639	32	38	
11	1	1	0	0	512	512	509	643	32	37	
12	1	1	0	0	514	514	508	646	31	37	
13	1	1	0	0	516	512	508	649	31	37	
14	1	1	0	0	515	515	507	652	31	37	
15	1	1	0	0	513	515	509	654	30	36	
0	1	1	0	0	511	515	508	657	30	36	
1	1	1	0	0	510	524	508	659	30	36	
2	1	1	0	0	507	524	511	659	29	36	
3	1	1	0	0	506	519	511	660	29	35	
4	1	1	0	0	508	516	509	660	28	35	
5	1	1	0	0	510	511	511	660	28	35	
6	1	1	0	0	510	507	514	662	27	35	
7	1	1	0	0	512	506	513	661	26	35	
8	1	1	0	0	513	509	513	661	26	34	
9	1	1	0	0	513	511	511	659	25	34	
10	1	1	0	0	508	519	508	659	25	34	
11	1	1	0	0	508	520	506	656	24	34	
12	1	1	0	0	505	533	505	654	23	33	
13	1	1	0	0	506	536	507	651	23	33	
14	1	1	0	0	505	534	504	648	23	33	
15	1	1	0	0	505	514	498	647	22	33	
0	1	1	0	0	508	493	497	643	22	32	
1	1	1	0	0	508	482	502	641	21	32	
2	1	1	0	0	506	481	504	638	21	31	
3	1	1	0	0	502	491	508	634	20	31	
4	1	1	0	0	499	501	512	632	20	31	
5	1	1	0	0	499	507	514	628	19	30	
6	1	1	0	0	498	508	515	625	19	30	
7	1	1	0	0	499	511	515	622	19	30	
8	1	1	0	0	498	511	515	619	19	29	
9	1	1	0	0	502	516	517	615	18	29	
10	1	1	0	0	504	515	515	612	18	28	
11	1	1	0	0	507	516	517	609	18	28	
12	1	1	0	0	506	518	515	605	17	28	
13	1	1	0	0	507	518	515	601	17	27	
14	1	1	0	0	507	517	514	598	17	27	
15	1	1	0	0	507	516	514	594	17	27	
0	1	1	0	0	510	518	512	591	18	26	
1	1	1	0	0	513	519	511	588	17	26	
2	1	1	0	0	510	519	511	584	18	26	
3	1	1	0	0	512	523	509	582	18	26	
4	1	1	0	0	512	521	510	578	17	26	
5	1	1	0	0	514	521	508	574	18	26	
6	1	1	0	0	512	519	507	572	18	26	
7	1	1	0	0	513	517	503	568	18	25	
8	1	1	0	0	514	514	504	565	19	25	
9	1	1	0	0	512	514	504	563	19	25	
10	1	1	0	0	514	516	506	560	19	25	
11	1	1	0	0	514	518	504	556	19	25	
12	1	1	0	0	513	513	506	555	19	25	
13	1	1	0	0	514	513	507	552	20	25	
14	1	1	0	0	514	514	507	550	20	26	
15	1	1	0	0	514	513	507	549	21	26	
0	1	1	0	0	516	511	508	547	21	26	
1	1	1	0	0	514	511	507	547	22	26	
2	1	1	0	0	513	511	508	546	22	26	
3	1	1	0	0	517	510	507	545	22	26	
4	1	1	0	0	517	513	506	545	22	26	
5	1	1	0	0	517	512	507	545	23	26	
6	1	1	0	0	518	514	508	547	24	26	
7	1	1	0	0	519	512	505	547	24	27	
8	1	1	0	0	519	512	508	549	25	27	
9	1	1	0	0	518	512	505	550	25	27	
10	1	1	0	0	516	514	504	552	25	27	
11	1	1	0	0	517	510	504	554	25	27	
12	1	1	0	0	515	512	506	556	25	27	
13	1	1	0	0	512	511	508	557	26	28	
14	1	1	0	0	512	509	506	559	27	28	
15	1	1	0	0	508	509	507	561	27	28	
0	1	1	0	0	508	510	509	563	28	28	
1	1	1	0	0	510	509	508	565	28	28	
2	1	1	0	0	508	509	510	565	28	29	
3	1	1	0	0	510	508	510	566	28	29	
4	1	1	0	0	510	510	510	567	28	29	
5	1	1	0	0	509	510	508	567	29	29	
6	1	1	0	0	507	511	509	568	29	30	
7	1	1	0	0	511	511	511	568	29	30	
8	1	1	0	0	512	513	507	568	30	30	
9	1	1	0	0	512	512	508	568	30	30	
10	1	1	0	0	512	512	508	567	30	31	
11	1	1	0	0	513	513	510	566	30	31	
12	1	1	0	0	512	513	508	563	30	31	
13	1	1	0	0	512	512	508	561	30	31	
14	1	1	0	0	512	512	508	559	30	31	
15	1	1	0	0	511	513	508	556	30	32	
0	1	1	0	0	510	513	508	553	30	32	
1	1	1	0	0	508	511	508	551	30	32	
2	1	1	0	0	508	510	508	548	30	32	
3	1	1	0	0	510	509	510	545	30	32	
4	1	1	0	0	506	510	508	542	30	32	
5	1	1	0	0	504	511	507	538	30	32	
6	1	1	0	0	507	511	510	536	30	32	
7	1	1	0	0	506	512	510	532	29	32	
8	1	1	0	0	504	513	509	530	29	32	
9	1	1	0	0	506	513	512	528	29	32	
10	1	1	0	0	510	511	512	524	29	32	
11	1	1	0	0	508	510	510	520	29	33	
12	1	1	0	0	511	509	507	518	28	33	
13	1	1	0	0	513	510	510	513	28	33	
14	1	1	0	0	515	511	510	511	28	33	
15	1	1	0	0	512	513	510	509	27	33	
0	1	1	0	0	509	516	509	507	28	33	
1	1	1	0	0	513	517	506	504	27	33	
2	1	1	0	0	510	518	507	502	27	33	
3	1	1	0	0	510	518	509	500	26	33	
4	1	1	0	0	512	519	509	498	26	33	
5	1	1	0	0	506	523	510	496	26	34	
6	1	1	0	0	504	522	510	494	26	34	
7	1	1	0	0	504	504	508	492	25	34	
8	1	1	0	0	506	499	508	492	25	34	
9	1	1	0	0	505	503	509	492	25	34	
10	1	1	0	0	504	511	511	489	25	34	
11	1	1	0	0	508	510	512	489	25	34	
12	1	1	0	0	508	512	510	488	24	34	
13	1	1	0	0	506	510	511	487	24	34	
14	1	1	0	0	507	505	510	486	24	34	
15	1	1	0	0	510	508	509	486	24	35	
0	1	1	0	0	511	511	510	486	24	35	
1	1	1	0	0	513	516	511	487	24	35	
2	1	1	0	0	512	519	511	486	24	35	
3	1	1	0	0	514	518	511	487	23	35	
4	1	1	0	0	516	519	510	488	23	35	
5	1	1	0	0	518	521	511	488	23	35	
6	1	1	0	0	514	520	511	490	23	35	
7	1	1	0	0	515	520	510	491	23	35	
8	1	1	0	0	515	523	510	493	24	35	
9	1	1	0	0	512	519	509	495	23	35	
10	1	1	0	0	512	521	511	496	23	34	
11	1	1	0	0	510	525	510	499	23	34	
12	1	1	0	0	512	522	507	501	23	34	
13	1	1	0	0	509	521	507	502	23	34	
14	1	1	0	0	506	511	505	505	23	34	
15	1	1	0	0	507	499	502	508	24	34	
0	1	1	0	0	506	506	504	510	24	34	
1	1	1	0	0	507	512	507	513	24	34	
2	1	1	0	0	506	513	507	516	24	34	
3	1	1	0	0	507	499	506	519	24	34	
4	1	1	0	0	510	493	504	522	24	34	
5	1	1	0	0	509	504	507	524	24	34	
6	1	1	0	0	513	512	509	527	24	33	
7	1	1	0	0	512	516	510	529	25	33	
8	1	1	0	0	512	516	511	532	25	33	
9	1	1	0	0	513	516	510	535	25	33	
10	1	1	0	0	512	512	508	538	25	33	
11	1	1	0	0	511	510	508	540	25	33	
12	1	1	0	0	511	508	508	543	25	33	
13	1	1	0	0	509	513	510	545	25	33	
14	1	1	0	0	509	516	507	549	26	33	
15	1	1	0	0	509	516	512	550	26	33	
0	1	1	0	0	508	514	510	552	26	33	
1	1	1	0	0	506	513	509	556	26	33	
2	1	1	0	0	508	515	511	558	27	33	
3	1	1	0	0	506	514	513	560	27	33	
4	1	1	0	0	505	513	513	563	27	33	
5	1	1	0	0	507	514	513	564	27	33	
6	1	1	0	0	505	514	510	567	28	33	
7	1	1	0	0	505	515	513	568	28	33	
8	1	1	0	0	510	513	511	571	28	33	
9	1	1	0	0	507	513	512	573	28	33	
10	1	1	0	0	507	515	509	574	28	33	
11	1	1	0	0	506	513	511	575	29	33	
12	1	1	0	0	507	513	510	578	29	33	
13	1	1	0	0	507	513	510	579	29	33	
14	1	1	0	0	508	512	510	582	30	33	
15	1	1	0	0	503	512	510	583	30	33	
0	1	1	0	0	504	511	510	585	31	33	
1	1	1	0	0	504	511	512	585	31	33	
2	1	1	0	0	503	511	512	587	31	33	
3	1	1	0	0	505	512	511	588	31	33	
4	1	1	0	0	504	510	514	590	31	34	
5	1	1	0	0	502	513	514	591	32	34	
6	1	1	0	0	502	509	513	593	32	34	
7	1	1	0	0	503	511	511	595	33	34	
8	1	1	0	0	504	513	513	597	33	34	
9	1	1	0	0	508	515	510	599	33	35	
10	1	1	0	0	509	516	508	600	34	35	
11	1	1	0	0	510	519	509	602	34	35	
12	1	1	0	0	513	516	508	604	34	35	
13	1	1	0	0	513	513	507	606	35	36	
14	1	1	0	0	515	510	506	608	35	36	
15	1	1	0	0	513	512	507	610	36	37	
0	1	1	0	0	515	514	507	612	36	37	
1	1	1	0	0	518	513	505	614	36	38	
2	1	1	0	0	515	514	507	614	37	38	
3	1	1	0	0	516	514	508	615	37	39	
4	1	1	0	0	517	513	504	615	37	39	
5	1	1	0	0	513	513	506	615	38	40	
6	1	1	0	0	512	510	506	616	38	40	
7	1	1	0	0	510	509	508	616	38	41	
8	1	1	0	0	512	509	509	615	39	42	
9	1	1	0	0	510	509	508	614	39	42	
10	1	1	0	0	509	507	512	611	39	43	
11	1	1	0	0	510	506	510	610	39	43	
12	1	1	0	0	510	508	511	608	39	43	
13	1	1	0	0	508	515	511	606	40	44	
14	1	1	0	0	510	527	498	604	40	44	
15	1	1	0	0	513	521	502	601	40	44	
0	1	1	0	0	514	516	506	598	40	45	
1	1	1	0	0	513	518	505	595	40	45	
2	1	1	0	0	514	516	505	591	40	45	
3	1	1	0	0	516	517	505	587	40	45	
4	1	1	0	0	515	516	506	583	39	45	
5	1	1	0	0	516	515	508	579	39	45	
6	1	1	0	0	516	517	507	575	39	45	
7	1	1	0	0	515	514	507	570	39	45	
8	1	1	0	0	513	514	508	566	39	45	
9	1	1	0	0	512	512	507	560	39	45	
10	1	1	0	0	512	513	506	555	39	45	
11	1	1	0	0	510	513	510	550	38	45	
12	1	1	0	0	509	512	508	544	38	45	
13	1	1	0	0	510	507	508	539	38	45	
14	1	1	0	0	508	511	509	534	38	45	
15	1	1	0	0	508	508	508	529	37	45	
0	1	1	0	0	511	512	507	524	38	45	
1	1	1	0	0	511	512	510	519	37	45	
2	1	1	0	0	511	513	509	513	37	45	
3	1	1	0	0	511	513	510	508	37	45	
4	1	1	0	0	512	514	508	504	36	45	
5	1	1	0	0	516	515	507	498	36	45	
6	1	1	0	0	517	515	509	495	36	45	
7	1	1	0	0	517	516	505	492	36	45	
8	1	1	0	0	517	513	505	487	36	45	
9	1	1	0	0	519	513	506	484	36	45	
10	1	1	0	0	519	515	506	481	36	45	
11	1	1	0	0	519	512	506	478	35	45	
12	1	1	0	0	516	512	506	476	35	45	
13	1	1	0	0	513	515	508	473	35	45	
14	1	1	0	0	512	511	508	472	35	45	
15	1	1	0	0	511	510	509	472	34	45	
0	1	1	0	0	507	511	509	472	34	45	
1	1	1	0	0	507	509	509	472	34	45	
2	1	1	0	0	506	510	508	471	34	45	
3	1	1	0	0	505	510	508	472	33	45	
4	1	1	0	0	507	511	508	472	33	46	
5	1	1	0	0	510	511	508	472	33	46	
6	1	1	0	0	509	514	511	474	32	46	
7	1	1	0	0	509	514	510	476	32	46	
8	1	1	0	0	511	513	510	478	32	46	
9	1	1	0	0	512	513	509	480	32	46	
10	1	1	0	0	512	514	509	481	31	46	
11	1	1	0	0	511	513	510	483	31	46	
12	1	1	0	0	511	515	510	486	31	46	
13	1	1	0	0	515	512	509	487	31	46	
14	1	1	0	0	512	515	511	489	31	46	
15	1	1	0	0	510	513	510	491	31	46	
0	1	1	0	0	509	511	508	494	31	46	
1	1	1	0	0	510	510	507	497	31	46	
2	1	1	0	0	509	512	508	499	31	46	
3	1	1	0	0	507	511	510	502	30	46	
4	1	1	0	0	506	511	510	504	30	46	
5	1	1	0	0	504	511	510	507	30	47	
6	1	1	0	0	506	510	511	510	30	47	
7	1	1	0	0	508	509	509	512	30	47	
8	1	1	0	0	508	510	510	514	30	47	
9	1	1	0	0	506	513	510	517	29	47	
10	1	1	0	0	506	513	507	520	29	46	
11	1	1	0	0	509	515	509	524	28	46	
12	1	1	0	0	510	512	514	527	28	46	
13	1	1	0	0	511	511	517	528	28	46	
14	1	1	0	0	512	512	511	531	27	46	
15	1	1	0	0	514	511	512	532	27	46	
0	1	1	0	0	514	513	508	535	27	45	
1	1	1	0	0	514	513	510	537	27	45	
2	1	1	0	0	511	508	510	539	27	45	
3	1	1	0	0	511	500	511	541	26	45	
4	1	1	0	0	512	509	511	544	26	44	
5	1	1	0	0	508	539	498	547	26	44	
6	1	1	0	0	505	540	493	550	26	44	
7	1	1	0	0	507	524	505	552	26	44	
8	1	1	0	0	507	517	510	556	26	43	
9	1	1	0	0	508	516	511	560	25	43	
10	1	1	0	0	507	510	513	563	25	43	
11	1	1	0	0	510	504	516	567	25	42	
12	1	1	0	0	509	498	516	571	24	42	
13	1	1	0	0	510	499	513	574	24	42	
14	1	1	0	0	507	504	510	578	24	42	
15	1	1	0	0	507	524	508	581	24	41	
0	1	1	0	0	509	545	502	584	23	41	
1	1	1	0	0	514	538	512	588	23	41	
2	1	1	0	0	517	524	538	590	22	40	
3	1	1	0	0	514	511	553	593	22	40	
4	1	1	0	0	512	505	520	595	21	39	
5	1	1	0	0	515	510	489	598	21	39	
6	1	1	0	0	516	515	493	600	21	39	
7	1	1	0	0	510	513	502	601	20	38	
8	1	1	0	0	510	502	510	604	20	38	
9	1	1	0	0	503	483	495	606	20	38	
10	1	1	0	0	505	487	458	608	19	37	
11	1	1	0	0	505	500	464	609	19	37	
12	1	1	0	0	501	507	480	611	18	36	
13	1	1	0	0	500	507	509	612	18	36	
14	1	1	0	0	499	507	523	614	17	35	
15	1	1	0	0	501	507	528	614	17	35	
0	1	1	0	0	503	507	530	614	17	34	
1	1	1	0	0	504	515	521	613	16	34	
2	1	1	0	0	505	514	510	612	16	33	
3	1	1	0	0	507	512	497	611	16	33	
4	1	1	0	0	509	518	495	610	15	32	
5	1	1	0	0	510	521	509	608	15	32	
6	1	1	0	0	508	519	515	608	15	32	
7	1	1	0	0	512	519	519	606	15	31	
8	1	1	0	0	512	518	519	604	15	31	
9	1	1	0	0	512	519	520	604	14	31	
10	1	1	0	0	511	517	519	601	14	30	
11	1	1	0	0	513	518	517	599	14	30	
12	1	1	0	0	511	517	517	598	13	30	
13	1	1	0	0	511	518	520	597	14	30	
14	1	1	0	0	509	528	513	597	13	29	
15	1	1	0	0	507	524	516	597	13	29	
0	1	1	0	0	507	516	517	597	14	29	
1	1	1	0	0	509	515	513	597	13	29	
2	1	1	0	0	509	518	516	597	13	29	
3	1	1	0	0	508	513	513	598	13	29	
4	1	1	0	0	511	510	519	598	12	29	
5	1	1	0	0	510	508	512	598	13	29	
6	1	1	0	0	511	507	507	600	13	30	
7	1	1	0	0	511	508	508	600	13	30	
8	1	1	0	0	510	511	502	601	13	30	
9	1	1	0	0	510	514	500	603	13	30	
10	1	1	0	0	511	508	504	602	13	31	
11	1	1	0	0	514	504	511	603	13	31	
12	1	1	0	0	512	510	512	604	12	32	
13	1	1	0	0	511	508	512	603	13	32	
14	1	1	0	0	513	519	501	604	13	33	
15	1	1	0	0	511	529	494	605	13	33	
0	1	1	0	0	510	523	503	607	14	34	
1	1	1	0	0	511	518	508	608	13	34	
2	1	1	0	0	509	515	509	608	13	35	
3	1	1	0	0	509	516	508	608	14	36	
4	1	1	0	0	506	511	506	608	13	36	
5	1	1	0	0	507	513	506	609	14	37	
6	1	1	0	0	507	511	512	610	14	38	
7	1	1	0	0	510	507	514	610	14	39	
8	1	1	0	0	510	507	516	611	14	39	
9	1	1	0	0	508	513	512	611	14	40	
10	1	1	0	0	509	514	506	611	13	41	
11	1	1	0	0	511	513	512	611	13	41	
12	1	1	0	0	511	519	510	611	13	42	
13	1	1	0	0	512	519	504	609	13	43	
14	1	1	0	0	514	519	510	610	13	44	
15	1	1	0	0	526	515	510	609	13	44	
0	1	1	0	0	529	516	511	608	14	45	
1	1	1	0	0	524	513	515	607	13	46	
2	1	1	0	0	516	508	513	605	13	46	
3	1	1	0	0	511	513	507	603	13	47	
4	1	1	0	0	498	516	506	602	13	48	
5	1	1	0	0	481	511	505	599	13	48	
6	1	1	0	0	479	495	503	596	13	49	
7	1	1	0	0	489	487	504	593	13	49	
8	1	1	0	0	500	496	510	590	14	50	
9	1	1	0	0	500	513	509	587	13	50	
10	1	1	0	0	502	520	509	583	13	51	
11	1	1	0	0	508	521	509	579	13	51	
12	1	1	0	0	518	520	514	574	13	52	
13	1	1	0	0	515	511	511	569	13	52	
14	1	1	0	0	510	508	508	566	14	52	
15	1	1	0	0	502	511	509	561	14	53	
0	1	1	0	0	513	504	512	556	14	53	
1	1	1	0	0	516	505	516	552	14	54	
2	1	1	0	0	518	507	515	547	14	54	
3	1	1	0	0	516	512	518	544	14	54	
4	1	1	0	0	520	519	518	539	14	54	
5	1	1	0	0	517	527	517	534	14	55	
6	1	1	0	0	513	551	511	530	14	55	
7	1	1	0	0	521	555	499	525	14	55	
8	1	1	0	0	543	531	504	521	15	55	
9	1	1	0	0	544	507	507	518	15	55	
10	1	1	0	0	491	501	504	513	15	55	
11	1	1	0	0	463	496	502	510	15	55	
12	1	1	0	0	499	489	503	505	15	55	
13	1	1	0	0	504	493	502	501	15	55	
14	1	1	0	0	506	488	504	499	16	55	
15	1	1	0	0	503	505	509	495	16	55	
0	1	1	0	0	494	520	504	492	16	55	
1	1	1	0	0	499	511	502	489	16	55	
2	1	1	0	0	505	505	504	486	16	55	
3	1	1	0	0	510	504	510	483	16	55	
4	1	1	0	0	513	510	513	480	16	55	
5	1	1	0	0	513	513	517	476	17	55	
6	1	1	0	0	516	511	512	474	17	55	
7	1	1	0	0	518	509	512	472	17	55	
8	1	1	0	0	516	513	512	470	18	55	
9	1	1	0	0	516	512	513	469	17	55	
10	1	1	0	0	514	508	514	467	18	55	
11	1	1	0	0	514	508	515	465	18	55	
12	1	1	0	0	509	527	504	465	18	55	
13	1	1	0	0	508	522	501	462	19	55	
14	1	1	0	0	500	516	508	462	20	55	
15	1	1	0	0	496	512	514	462	20	55	
0	1	1	0	0	497	507	515	462	21	55	
1	1	1	0	0	500	513	508	463	21	55	
2	1	1	0	0	496	513	512	466	22	55	
3	1	1	0	0	497	512	513	468	23	55	
4	1	1	0	0	500	513	511	472	23	55	
5	1	1	0	0	499	510	513	475	24	55	
6	1	1	0	0	500	513	511	479	25	55	
7	1	1	0	0	508	516	512	482	25	55	
8	1	1	0	0	510	515	509	486	26	55	
9	1	1	0	0	511	521	511	491	26	55	
10	1	1	0	0	516	519	510	493	27	55	
11	1	1	0	0	517	519	508	497	27	55	
12	1	1	0	0	518	521	506	500	28	55	
13	1	1	0	0	519	518	508	501	29	55	
14	1	1	0	0	518	519	508	503	30	55	
15	1	1	0	0	518	518	509	502	30	55	
0	1	1	0	0	517	517	510	498	31	55	
1	1	1	0	0	518	516	510	494	31	55	
2	1	1	0	0	522	514	510	486	32	55	
3	1	1	0	0	532	513	512	478	33	55	
4	1	1	0	0	539	515	511	469	33	55	
5	1	1	0	0	545	513	511	460	34	55	
6	1	1	0	0	546	514	514	453	35	55	
7	1	1	0	0	540	515	513	447	36	55	
8	1	1	0	0	535	516	510	442	37	55	
9	1	1	0	0	529	517	506	440	38	55	
10	1	1	0	0	521	518	507	437	40	55	
11	1	1	0	0	507	520	506	436	41	55	
12	1	1	0	0	497	519	506	438	42	55	
13	1	1	0	0	485	519	507	439	44	55	
14	1	1	0	0	470	517	508	444	46	55	
15	1	1	0	0	460	513	509	449	47	55	
0	1	1	0	0	458	515	509	455	49	54	
1	1	1	0	0	459	516	508	462	50	52	
2	1	1	0	0	466	518	508	468	51	50	
3	1	1	0	0	475	519	506	475	52	48	
4	1	1	0	0	482	517	508	483	52	46	
5	1	1	0	0	490	519	508	490	54	44	
6	1	1	0	0	496	518	508	499	54	43	
7	1	1	0	0	499	516	515	507	54	41	
8	1	1	0	0	502	519	515	515	54	40	
9	1	1	0	0	505	516	512	523	54	39	
10	1	1	0	0	509	513	508	528	54	38	
11	1	1	0	0	513	511	507	535	54	37	
12	1	1	0	0	515	511	505	541	54	37	
13	1	1	0	0	515	511	510	544	54	36	
14	1	1	0	0	517	510	515	550	54	36	
15	1	1	0	0	516	511	510	554	53	35	
0	1	1	0	0	519	508	505	559	52	35	
1	1	1	0	0	518	510	505	563	50	35	
2	1	1	0	0	523	511	507	567	49	35	
3	1	1	0	0	524	512	504	571	48	35	
4	1	1	0	0	525	513	504	575	46	35	
5	1	1	0	0	527	513	506	579	45	35	
6	1	1	0	0	527	515	503	584	44	35	
7	1	1	0	0	523	513	503	588	43	35	
8	1	1	0	0	519	510	504	592	42	35	
9	1	1	0	0	521	509	506	596	40	35	
10	1	1	0	0	518	508	503	600	39	35	
11	1	1	0	0	515	507	504	603	38	35	
12	1	1	0	0	508	503	500	606	37	35	
13	1	1	0	0	509	507	503	608	36	35	
14	1	1	0	0	514	507	503	611	35	35	
15	1	1	0	0	512	507	506	612	34	35	
0	1	1	0	0	512	510	507	614	34	35	
1	1	1	0	0	513	511	506	614	33	35	
2	1	1	0	0	515	514	508	615	32	35	
3	1	1	0	0	511	516	508	614	31	35	
4	1	1	0	0	513	515	510	613	31	35	
5	1	1	0	0	516	514	510	611	30	34	
6	1	1	0	0	516	511	509	610	30	34	
7	1	1	0	0	514	516	508	609	29	34	
8	1	1	0	0	511	513	507	608	29	34	
9	1	1	0	0	506	507	504	606	28	34	
10	1	1	0	0	502	499	504	604	28	34	
11	1	1	0	0	502	500	503	602	27	33	
12	1	1	0	0	505	508	505	600	27	33	
13	1	1	0	0	505	509	507	598	27	33	
14	1	1	0	0	506	509	508	596	26	33	
15	1	1	0	0	505	508	511	593	26	33	
0	1	1	0	0	506	508	512	592	25	33	
1	1	1	0	0	508	510	514	591	24	33	
2	1	1	0	0	508	512	513	588	24	33	
3	1	1	0	0	507	515	512	587	24	33	
4	1	1	0	0	508	515	515	585	23	33	
5	1	1	0	0	508	513	515	583	23	33	
6	1	1	0	0	513	512	514	583	22	32	
7	1	1	0	0	515	512	515	583	22	32	
8	1	1	0	0	515	516	514	581	22	32	
9	1	1	0	0	515	516	512	582	21	32	
10	1	1	0	0	518	518	512	581	21	32	
11	1	1	0	0	519	520	513	582	21	32	
12	1	1	0	0	517	521	512	581	20	32	
13	1	1	0	0	516	520	508	582	20	32	
14	1	1	0	0	516	522	508	582	20	31	
15	1	1	0	0	512	519	505	583	20	31	
0	1	1	0	0	511	502	506	584	20	31	
1	1	1	0	0	513	497	507	584	19	31	
2	1	1	0	0	510	515	508	584	19	31	
3	1	1	0	0	507	528	508	585	19	30	
4	1	1	0	0	507	516	514	585	19	30	
5	1	1	0	0	510	515	515	585	19	30	
6	1	1	0	0	511	516	516	587	19	29	
7	1	1	0	0	511	511	514	587	19	29	
8	1	1	0	0	509	504	515	587	19	29	
9	1	1	0	0	512	501	514	587	19	29	
10	1	1	0	0	516	508	512	585	19	28	
11	1	1	0	0	511	520	509	584	19	28	
12	1	1	0	0	510	525	504	583	19	28	
13	1	1	0	0	504	518	504	581	20	28	
14	1	1	0	0	513	519	502	579	20	28	
15	1	1	0	0	512	511	499	578	20	27	
0	1	1	0	0	509	508	505	576	21	27	
1	1	1	0	0	507	513	501	574	21	27	
2	1	1	0	0	504	507	501	571	21	27	
3	1	1	0	0	506	497	505	568	21	27	
4	1	1	0	0	505	501	507	566	21	27	
5	1	1	0	0	508	507	509	563	22	27	
6	1	1	0	0	505	512	511	561	22	27	
7	1	1	0	0	508	514	512	559	23	27	
8	1	1	0	0	515	516	512	556	23	28	
9	1	1	0	0	516	516	513	554	23	28	
10	1	1	0	0	511	514	514	551	24	28	
11	1	1	0	0	513	517	514	550	24	28	
12	1	1	0	0	519	518	512	547	24	28	
13	1	1	0	0	516	518	512	544	25	28	
14	1	1	0	0	517	517	512	544	25	29	
15	1	1	0	0	515	515	513	543	26	29	
0	1	1	0	0	510	515	512	542	26	29	
1	1	1	0	0	515	517	511	541	26	29	
2	1	1	0	0	519	516	510	539	26	30	
3	1	1	0	0	510	514	506	538	27	30	
4	1	1	0	0	505	518	507	537	27	30	
5	1	1	0	0	508	514	508	535	27	30	
6	1	1	0	0	515	514	507	535	27	30	
7	1	1	0	0	513	514	507	535	28	30	
8	1	1	0	0	511	516	509	535	28	30	
9	1	1	0	0	504	515	507	536	28	31	
10	1	1	0	0	495	512	508	536	28	31	
11	1	1	0	0	498	513	510	536	29	31	
12	1	1	0	0	504	511	507	536	28	31	
13	1	1	0	0	510	512	506	537	29	31	
14	1	1	0	0	511	512	508	536	29	32	
15	1	1	0	0	509	511	508	537	29	32	
0	1	1	0	0	511	511	508	537	29	32	
1	1	1	0	0	512	511	509	537	29	32	
2	1	1	0	0	513	511	507	537	29	32	
3	1	1	0	0	512	513	508	538	29	33	
4	1	1	0	0	518	512	506	537	29	33	
5	1	1	0	0	513	511	506	536	29	33	
6	1	1	0	0	517	511	507	536	29	33	
7	1	1	0	0	516	510	511	536	29	33	
8	1	1	0	0	513	509	511	536	29	33	
9	1	1	0	0	510	513	510	536	29	33	
10	1	1	0	0	510	513	510	535	29	34	
11	1	1	0	0	510	512	509	534	28	34	
12	1	1	0	0	510	511	508	534	28	34	
13	1	1	0	0	510	511	509	532	28	34	
14	1	1	0	0	508	511	508	531	28	34	
15	1	1	0	0	508	511	510	529	28	34	
0	1	1	0	0	505	508	510	529	28	34	
1	1	1	0	0	503	509	511	529	28	34	
2	1	1	0	0	507	513	510	527	28	34	
3	1	1	0	0	508	513	508	527	28	34	
4	1	1	0	0	506	513	510	526	27	35	
5	1	1	0	0	505	512	512	524	28	35	
6	1	1	0	0	504	512	511	524	27	35	
7	1	1	0	0	510	511	510	522	27	35	
8	1	1	0	0	510	513	507	522	27	35	
9	1	1	0	0	510	513	512	521	27	35	
10	1	1	0	0	509	514	510	520	27	35	
11	1	1	0	0	511	513	508	519	27	35	
12	1	1	0	0	510	513	509	518	26	35	
13	1	1	0	0	510	512	508	517	27	35	
14	1	1	0	0	512	515	510	516	26	35	
15	1	1	0	0	509	513	510	516	26	35	
0	1	1	0	0	509	511	508	515	27	35	
1	1	1	0	0	510	511	509	516	26	35	
2	1	1	0	0	508	512	509	515	26	35	
3	1	1	0	0	507	516	508	515	26	35	
4	1	1	0	0	506	513	510	515	26	35	
5	1	1	0	0	505	512	508	516	26	36	
6	1	1	0	0	508	513	511	517	26	36	
7	1	1	0	0	508	515	511	517	26	36	
8	1	1	0	0	508	512	510	518	26	36	
9	1	1	0	0	506	514	508	519	26	35	
10	1	1	0	0	506	516	509	520	26	35	
11	1	1	0	0	509	515	508	522	26	35	
12	1	1	0	0	511	515	510	524	26	35	
13	1	1	0	0	511	515	509	525	26	35	
14	1	1	0	0	511	515	508	527	26	35	
15	1	1	0	0	515	514	504	529	27	35	
0	1	1	0	0	515	514	507	531	27	35	
1	1	1	0	0	515	515	507	534	27	35	
2	1	1	0	0	512	510	508	535	27	35	
3	1	1	0	0	512	514	507	537	27	35	
4	1	1	0	0	510	513	507	540	27	35	
5	1	1	0	0	508	512	506	542	27	35	
6	1	1	0	0	506	511	507	546	28	35	
7	1	1	0	0	506	514	505	548	28	35	
8	1	1	0	0	502	513	505	550	28	35	
9	1	1	0	0	502	512	509	552	28	35	
10	1	1	0	0	499	510	511	554	29	35	
11	1	1	0	0	502	509	511	556	29	35	
12	1	1	0	0	502	511	513	559	29	35	
13	1	1	0	0	502	513	512	561	29	35	
14	1	1	0	0	504	514	512	564	30	35	
15	1	1	0	0	508	514	512	566	30	35	
0	1	1	0	0	508	514	512	568	31	35	
1	1	1	0	0	511	514	511	571	31	35	
2	1	1	0	0	512	515	510	572	31	35	
3	1	1	0	0	513	517	508	575	31	35	
4	1	1	0	0	513	516	508	577	31	35	
5	1	1	0	0	513	517	510	580	32	35	
6	1	1	0	0	511	513	510	582	32	35	
7	1	1	0	0	512	514	511	584	33	35	
8	1	1	0	0	513	512	510	587	33	36	
9	1	1	0	0	509	512	510	588	33	36	
10	1	1	0	0	508	508	512	590	34	36	
11	1	1	0	0	507	508	511	591	34	37	
12	1	1	0	0	507	512	510	591	34	37	
13	1	1	0	0	505	511	510	592	35	37	
14	1	1	0	0	506	510	511	594	35	38	
15	1	1	0	0	505	511	512	595	35	38	
0	1	1	0	0	506	511	511	596	36	39	
1	1	1	0	0	508	515	512	596	36	39	
2	1	1	0	0	508	517	511	596	36	39	
3	1	1	0	0	511	515	511	596	37	40	
4	1	1	0	0	513	513	510	595	37	40	
5	1	1	0	0	515	511	510	594	37	41	
6	1	1	0	0	513	512	508	593	37	41	
7	1	1	0	0	514	513	508	593	38	41	
8	1	1	0	0	515	513	509	591	38	42	
9	1	1	0	0	515	512	506	590	38	42	
10	1	1	0	0	516	514	508	587	38	42	
11	1	1	0	0	516	513	508	585	38	42	
12	1	1	0	0	515	512	508	583	38	42	
13	1	1	0	0	512	515	508	579	39	43	
14	1	1	0	0	509	512	507	578	39	43	
15	1	1	0	0	511	511	510	575	39	43	
0	1	1	0	0	509	512	509	573	39	43	
1	1	1	0	0	508	511	511	571	39	43	
2	1	1	0	0	507	514	511	568	39	43	
3	1	1	0	0	509	512	511	565	39	43	
4	1	1	0	0	510	511	510	562	39	43	
5	1	1	0	0	508	512	510	558	39	43	
6	1	1	0	0	511	513	512	556	39	43	
7	1	1	0	0	511	515	509	554	39	43	
8	1	1	0	0	511	514	507	551	40	43	
9	1	1	0	0	515	513	509	548	39	44	
10	1	1	0	0	516	514	507	545	39	44	
11	1	1	0	0	516	515	509	543	39	44	
12	1	1	0	0	515	513	510	538	39	44	
13	1	1	0	0	515	515	507	535	39	44	
14	1	1	0	0	512	515	508	532	39	44	
15	1	1	0	0	511	515	506	528	39	44	
0	1	1	0	0	510	513	506	527	39	45	
1	1	1	0	0	511	513	507	524	39	45	
2	1	1	0	0	510	514	507	521	39	45	
3	1	1	0	0	509	512	508	519	39	45	
4	1	1	0	0	508	514	508	516	39	45	
5	1	1	0	0	508	512	508	513	39	45	
6	1	1	0	0	508	511	508	512	39	45	
7	1	1	0	0	506	513	509	510	38	46	
8	1	1	0	0	508	514	507	510	39	46	
9	1	1	0	0	506	514	510	508	38	46	
10	1	1	0	0	508	513	508	508	38	46	
11	1	1	0	0	507	512	505	507	38	46	
12	1	1	0	0	511	513	507	507	37	47	
13	1	1	0	0	514	515	506	505	38	47	
14	1	1	0	0	514	516	509	505	37	47	
15	1	1	0	0	513	515	509	505	37	48	
0	1	1	0	0	515	515	506	505	37	48	
1	1	1	0	0	515	515	508	506	37	48	
2	1	1	0	0	515	512	510	507	36	48	
3	1	1	0	0	513	512	510	507	36	49	
4	1	1	0	0	510	513	506	508	35	49	
5	1	1	0	0	512	513	507	508	35	49	
6	1	1	0	0	510	515	504	509	35	49	
7	1	1	0	0	509	515	509	510	34	49	
8	1	1	0	0	509	515	510	511	34	50	
9	1	1	0	0	508	515	509	513	33	50	
10	1	1	0	0	505	515	509	514	33	50	
11	1	1	0	0	508	510	512	516	33	50	
12	1	1	0	0	508	511	516	518	32	50	
13	1	1	0	0	508	510	511	519	32	50	
14	1	1	0	0	509	508	508	522	32	50	
15	1	1	0	0	511	508	508	524	31	50	
0	1	1	0	0	512	519	502	526	31	49	
1	1	1	0	0	514	519	506	528	31	49	
2	1	1	0	0	519	516	509	531	30	49	
3	1	1	0	0	520	513	511	534	30	49	
4	1	1	0	0	521	512	509	537	30	49	
5	1	1	0	0	519	511	508	539	30	49	
6	1	1	0	0	518	511	504	543	29	48	
7	1	1	0	0	518	514	504	545	29	48	
8	1	1	0	0	513	513	507	548	29	48	
9	1	1	0	0	506	509	510	553	28	48	
10	1	1	0	0	500	509	508	556	28	48	
11	1	1	0	0	500	511	505	559	28	48	
12	1	1	0	0	510	510	507	563	27	47	
13	1	1	0	0	511	511	511	567	27	47	
14	1	1	0	0	511	509	512	572	27	47	
15	1	1	0	0	510	508	513	575	27	47	
0	1	1	0	0	505	510	515	579	26	47	
1	1	1	0	0	505	515	515	583	26	47	
2	1	1	0	0	504	519	515	587	25	46	
3	1	1	0	0	498	518	512	592	25	46	
4	1	1	0	0	500	512	512	596	24	46	
5	1	1	0	0	509	514	512	601	24	46	
6	1	1	0	0	516	514	505	607	23	45	
7	1	1	0	0	517	514	492	611	23	45	
8	1	1	0	0	520	509	497	616	23	45	
9	1	1	0	0	517	509	497	621	22	45	
10	1	1	0	0	510	509	498	625	22	44	
11	1	1	0	0	510	513	507	628	21	44	
12	1	1	0	0	509	515	509	632	20	43	
13	1	1	0	0	510	516	516	634	20	43	
14	1	1	0	0	509	513	512	638	20	43	
15	1	1	0	0	511	514	511	639	20	42	
0	1	1	0	0	512	514	511	640	20	42	
1	1	1	0	0	511	510	513	641	19	42	
2	1	1	0	0	510	507	503	640	19	41	
3	1	1	0	0	512	508	495	639	19	41	
4	1	1	0	0	508	512	499	639	18	40	
5	1	1	0	0	506	513	505	636	19	40	
6	1	1	0	0	510	514	506	634	18	40	
7	1	1	0	0	510	513	508	632	18	39	
8	1	1	0	0	512	514	507	628	18	39	
9	1	1	0	0	512	516	512	625	18	38	
10	1	1	0	0	511	514	515	619	18	38	
11	1	1	0	0	513	514	515	616	18	37	
12	1	1	0	0	512	511	524	611	17	37	
13	1	1	0	0	514	512	522	606	17	36	
14	1	1	0	0	515	514	519	603	17	36	
15	1	1	0	0	515	516	512	598	17	35	
0	1	1	0	0	519	514	511	594	17	35	
1	1	1	0	0	513	515	514	590	16	34	
2	1	1	0	0	510	513	512	584	16	34	
3	1	1	0	0	508	511	509	579	16	33	
4	1	1	0	0	506	509	502	575	16	33	
5	1	1	0	0	504	511	495	571	16	32	
6	1	1	0	0	501	512	503	568	16	32	
7	1	1	0	0	504	505	507	563	16	31	
8	1	1	0	0	504	508	510	560	16	31	
9	1	1	0	0	503	508	516	557	16	31	
10	1	1	0	0	502	514	517	552	15	30	
11	1	1	0	0	502	520	508	549	15	30	
12	1	1	0	0	509	518	511	547	15	30	
13	1	1	0	0	511	515	515	543	15	30	
14	1	1	0	0	511	512	520	542	15	30	
15	1	1	0	0	510	519	518	540	15	29	
0	1	1	0	0	513	518	514	539	15	29	
1	1	1	0	0	516	516	510	537	15	29	
2	1	1	0	0	511	514	504	535	15	29	
3	1	1	0	0	511	527	492	533	15	29	
4	1	1	0	0	514	525	494	531	15	29	
5	1	1	0	0	509	514	503	530	15	29	
6	1	1	0	0	509	512	512	531	15	29	
7	1	1	0	0	503	519	520	531	15	29	
8	1	1	0	0	503	516	533	532	16	29	
9	1	1	0	0	508	501	543	533	16	30	
10	1	1	0	0	512	476	541	534	16	30	
11	1	1	0	0	507	475	545	535	16	30	
12	1	1	0	0	504	521	506	536	16	31	
13	1	1	0	0	506	556	459	536	17	31	
14	1	1	0	0	512	546	448	539	17	31	
15	1	1	0	0	515	527	480	540	17	32	
0	1	1	0	0	511	514	503	541	18	32	
1	1	1	0	0	505	511	512	543	18	33	
2	1	1	0	0	495	511	515	543	18	33	
3	1	1	0	0	499	513	512	545	18	34	
4	1	1	0	0	508	515	508	545	18	34	
5	1	1	0	0	511	510	512	545	19	35	
6	1	1	0	0	513	509	510	547	19	35	
7	1	1	0	0	514	507	510	547	19	36	
8	1	1	0	0	517	509	507	548	20	36	
9	1	1	0	0	512	511	501	549	19	37	
10	1	1	0	0	509	510	505	549	20	37	
11	1	1	0	0	510	510	513	549	20	38	
12	1	1	0	0	509	510	515	549	20	38	
13	1	1	0	0	508	509	515	549	20	39	
14	1	1	0	0	509	508	515	550	20	39	
15	1	1	0	0	508	508	515	550	21	39	
0	1	1	0	0	510	510	513	550	21	39	
1	1	1	0	0	510	508	516	550	21	40	
2	1	1	0	0	514	515	511	550	21	40	
3	1	1	0	0	511	517	512	549	21	40	
4	1	1	0	0	505	519	515	549	21	41	
5	1	1	0	0	505	515	511	547	21	41	
6	1	1	0	0	513	515	510	547	21	41	
7	1	1	0	0	512	513	509	547	21	41	
8	1	1	0	0	510	513	509	546	22	42	
9	1	1	0	0	511	514	509	546	22	42	
10	1	1	0	0	511	514	508	544	22	42	
11	1	1	0	0	511	515	508	543	22	42	
12	1	1	0	0	510	514	509	543	21	42	
13	1	1	0	0	510	513	510	540	22	43	
14	1	1	0	0	508	509	512	540	22	43	
15	1	1	0	0	510	510	507	538	22	43	
0	1	1	0	0	508	513	507	536	22	43	
1	1	1	0	0	504	510	504	536	22	43	
2	1	1	0	0	504	512	506	534	22	43	
3	1	1	0	0	500	513	508	533	22	43	
4	1	1	0	0	506	515	510	532	22	43	
5	1	1	0	0	508	513	509	528	23	43	
6	1	1	0	0	510	513	511	528	23	43	
7	1	1	0	0	511	516	511	527	23	43	
8	1	1	0	0	511	513	511	525	23	43	
9	1	1	0	0	515	512	511	524	23	43	
10	1	1	0	0	513	511	508	523	23	43	
11	1	1	0	0	504	512	510	521	23	43	
12	1	1	0	0	506	515	513	520	23	43	
13	1	1	0	0	507	515	510	519	24	43	
14	1	1	0	0	504	514	509	518	24	43	
15	1	1	0	0	511	511	506	517	24	43	
0	1	1	0	0	509	510	508	517	24	43	
1	1	1	0	0	508	510	509	517	24	43	
2	1	1	0	0	508	510	509	516	24	43	
3	1	1	0	0	506	510	510	515	24	43	
4	1	1	0	0	506	510	509	516	24	43	
5	1	1	0	0	506	511	509	515	25	43	
6	1	1	0	0	505	511	511	515	25	43	
7	1	1	0	0	506	509	512	515	25	43	
8	1	1	0	0	506	509	510	516	25	43	
9	1	1	0	0	508	510	511	517	25	43	
10	1	1	0	0	509	508	511	518	25	43	
11	1	1	0	0	511	510	513	519	26	43	
12	1	1	0	0	514	509	513	520	25	43	
13	1	1	0	0	512	512	513	521	26	44	
14	1	1	0	0	518	513	511	524	26	44	
15	1	1	0	0	520	515	513	525	27	44	
0	1	1	0	0	519	519	509	527	27	44	
1	1	1	0	0	518	525	509	529	27	44	
2	1	1	0	0	521	533	508	531	27	44	
3	1	1	0	0	512	528	505	534	28	44	
4	1	1	0	0	500	512	499	538	28	44	
5	1	1	0	0	487	501	501	540	28	44	
6	1	1	0	0	489	492	503	544	29	44	
7	1	1	0	0	499	493	506	547	29	45	
8	1	1	0	0	497	504	506	550	29	45	
9	1	1	0	0	496	508	506	555	29	45	
10	1	1	0	0	505	512	512	558	30	46	
11	1	1	0	0	510	514	509	561	30	46	
12	1	1	0	0	510	514	511	566	30	46	
13	1	1	0	0	510	513	513	569	31	47	
14	1	1	0	0	512	509	514	573	32	47	
15	1	1	0	0	518	508	513	576	32	47	
0	1	1	0	0	521	509	513	579	33	48	
1	1	1	0	0	512	512	513	580	33	48	
2	1	1	0	0	516	515	515	582	34	49	
3	1	1	0	0	535	520	516	584	34	49	
4	1	1	0	0	541	524	512	587	34	49	
5	1	1	0	0	527	534	508	587	35	50	
6	1	1	0	0	518	536	509	588	36	50	
7	1	1	0	0	522	531	506	588	36	50	
8	1	1	0	0	528	524	508	587	37	51	
9	1	1	0	0	482	527	504	585	37	51	
10	1	1	0	0	435	512	497	583	38	51	
11	1	1	0	0	470	485	499	580	38	51	
12	1	1	0	0	496	472	500	577	38	52	
13	1	1	0	0	505	484	503	572	39	52	
14	1	1	0	0	508	507	505	569	39	52	
15	1	1	0	0	512	533	507	564	40	52	
0	1	1	0	0	515	531	505	559	40	52	
1	1	1	0	0	521	517	509	554	40	52	
2	1	1	0	0	524	513	511	548	40	52	
3	1	1	0	0	518	515	511	543	41	52	
4	1	1	0	0	518	516	510	539	41	52	
5	1	1	0	0	521	516	510	534	41	52	
6	1	1	0	0	526	519	510	531	41	52	
7	1	1	0	0	517	517	508	527	41	51	
8	1	1	0	0	513	517	511	524	42	51	
9	1	1	0	0	518	513	510	522	41	50	
10	1	1	0	0	515	516	511	520	41	49	
11	1	1	0	0	513	517	509	519	41	49	
12	1	1	0	0	512	516	510	519	41	48	
13	1	1	0	0	513	522	512	519	41	47	
14	1	1	0	0	513	524	514	520	41	46	
15	1	1	0	0	511	524	512	523	41	45	
0	1	1	0	0	512	528	511	525	41	44	
1	1	1	0	0	512	523	507	527	40	43	
2	1	1	0	0	511	510	506	529	40	43	
3	1	1	0	0	505	507	508	532	40	42	
4	1	1	0	0	499	507	509	535	39	41	
5	1	1	0	0	494	500	504	538	39	40	
6	1	1	0	0	493	496	501	543	39	39	
7	1	1	0	0	497	506	503	546	39	38	
8	1	1	0	0	504	511	504	550	39	37	
9	1	1	0	0	504	512	509	552	38	37	
10	1	1	0	0	508	513	510	555	38	36	
11	1	1	0	0	509	516	510	558	38	35	
12	1	1	0	0	511	518	512	561	37	35	
13	1	1	0	0	513	518	510	563	37	34	
14	1	1	0	0	513	518	511	566	37	34	
15	1	1	0	0	513	518	508	568	37	33	
0	1	1	0	0	512	518	510	572	37	33	
1	1	1	0	0	514	520	508	573	36	33	
2	1	1	0	0	515	518	507	574	36	32	
3	1	1	0	0	513	517	511	574	35	32	
4	1	1	0	0	514	516	510	576	35	32	
5	1	1	0	0	513	514	509	577	35	32	
6	1	1	0	0	510	518	511	579	35	32	
7	1	1	0	0	509	516	510	581	34	31	
8	1	1	0	0	507	513	510	582	34	31	
9	1	1	0	0	509	510	511	582	34	31	
10	1	1	0	0	508	510	510	583	34	31	
11	1	1	0	0	509	509	509	583	34	31	
12	1	1	0	0	512	509	509	582	33	31	
13	1	1	0	0	514	515	507	582	33	31	
14	1	1	0	0	516	513	507	582	33	31	
15	1	1	0	0	514	513	507	583	33	31	
0	1	1	0	0	513	511	504	582	33	31	
1	1	1	0	0	516	510	505	583	33	31	
2	1	1	0	0	519	508	505	580	33	31	
3	1	1	0	0	511	512	505	579	33	31	
4	1	1	0	0	509	511	511	579	32	31	
5	1	1	0	0	509	511	508	577	33	31	
6	1	1	0	0	509	509	508	575	32	32	
7	1	1	0	0	507	510	509	575	32	32	
8	1	1	0	0	508	508	509	574	33	32	
9	1	1	0	0	505	509	509	572	32	32	
10	1	1	0	0	509	510	508	571	32	32	
11	1	1	0	0	508	511	509	569	32	32	
12	1	1	0	0	508	512	511	567	32	32	
13	1	1	0	0	509	508	510	565	32	32	
14	1	1	0	0	509	507	510	563	32	32	
15	1	1	0	0	505	512	516	563	32	32	
0	1	1	0	0	508	513	511	562	32	33	
1	1	1	0	0	513	512	512	560	31	33	
2	1	1	0	0	520	510	509	559	31	33	
3	1	1	0	0	522	513	509	557	31	33	
4	1	1	0	0	518	514	509	556	30	33	
5	1	1	0	0	508	516	511	553	31	33	
6	1	1	0	0	510	511	507	552	30	33	
7	1	1	0	0	512	512	504	551	30	33	
8	1	1	0	0	513	509	503	551	30	33	
9	1	1	0	0	507	514	512	550	30	34	
10	1	1	0	0	500	514	511	549	30	34	
11	1	1	0	0	505	512	510	548	30	34	
12	1	1	0	0	506	512	507	547	29	34	
13	1	1	0	0	502	512	512	545	29	34	
14	1	1	0	0	502	511	511	546	29	34	
15	1	1	0	0	502	509	509	546	29	34	
0	1	1	0	0	510	514	510	546	29	34	
1	1	1	0	0	515	514	512	547	29	34	
2	1	1	0	0	518	512	510	546	28	34	
3	1	1	0	0	521	513	512	547	28	34	
4	1	1	0	0	512	513	510	547	28	34	
5	1	1	0	0	527	513	512	547	28	34	
6	1	1	0	0	524	515	510	547	28	34	
7	1	1	0	0	515	514	508	548	28	34	
8	1	1	0	0	519	515	509	549	28	34	
9	1	1	0	0	505	515	507	550	27	34	
10	1	1	0	0	491	515	506	551	27	34	
11	1	1	0	0	500	512	508	551	27	34	
12	1	1	0	0	498	513	510	552	27	34	
13	1	1	0	0	501	514	508	552	27	34	
14	1	1	0	0	500	514	509	553	27	34	
15	1	1	0	0	507	517	510	555	27	34	
0	1	1	0	0	506	515	507	556	27	34	
1	1	1	0	0	507	509	508	558	27	34	
2	1	1	0	0	507	504	510	558	27	34	
3	1	1	0	0	511	504	510	559	27	34	
4	1	1	0	0	510	507	509	560	26	34	
5	1	1	0	0	512	508	509	560	26	34	
6	1	1	0	0	513	514	511	561	26	34	
7	1	1	0	0	514	514	510	563	26	34	
8	1	1	0	0	513	515	512	564	27	34	
9	1	1	0	0	515	516	511	566	26	35	
10	1	1	0	0	514	515	510	567	26	35	
11	1	1	0	0	516	518	509	568	26	35	
12	1	1	0	0	514	515	509	569	26	35	
13	1	1	0	0	514	515	508	569	26	35	
14	1	1	0	0	513	512	509	571	26	35	
15	1	1	0	0	511	513	506	572	26	35	
0	1	1	0	0	510	513	508	574	27	35	
1	1	1	0	0	508	512	510	575	26	35	
2	1	1	0	0	508	511	510	576	26	35	
3	1	1	0	0	506	514	510	578	26	35	
4	1	1	0	0	508	512	508	579	26	36	
5	1	1	0	0	506	511	510	580	26	36	
6	1	1	0	0	506	510	511	582	26	36	
7	1	1	0	0	507	511	511	584	27	36	
8	1	1	0	0	508	513	511	585	27	36	
9	1	1	0	0	508	513	510	587	27	36	
10	1	1	0	0	509	513	510	587	27	36	
11	1	1	0	0	509	513	512	590	27	36	
12	1	1	0	0	511	513	509	591	26	37	
13	1	1	0	0	511	515	510	592	27	37	
14	1	1	0	0	512	514	510	594	27	37	
15	1	1	0	0	512	515	508	596	27	37	
0	1	1	0	0	513	515	507	597	27	37	
1	1	1	0	0	514	515	506	598	27	37	
2	1	1	0	0	512	513	507	600	27	37	
3	1	1	0	0	510	516	508	600	27	37	
4	1	1	0	0	508	514	506	603	27	38	
5	1	1	0	0	508	511	511	603	27	38	
6	1	1	0	0	508	512	509	604	27	38	
7	1	1	0	0	505	512	507	605	27	38	
8	1	1	0	0	507	512	509	607	28	38	
9	1	1	0	0	504	511	510	607	27	38	
10	1	1	0	0	504	511	508	607	27	38	
11	1	1	0	0	507	512	510	608	28	38	
12	1	1	0	0	508	511	510	608	27	39	
13	1	1	0	0	508	511	511	608	28	39	
14	1	1	0	0	508	511	510	610	28	39	
15	1	1	0	0	511	509	511	610	28	39	
0	1	1	0	0	512	511	511	611	28	39	
1	1	1	0	0	511	513	511	611	28	39	
2	1	1	0	0	515	515	509	610	28	39	
3	1	1	0	0	515	519	508	610	28	39	
4	1	1	0	0	514	520	508	610	28	39	
5	1	1	0	0	514	526	509	609	28	39	
6	1	1	0	0	511	537	508	610	28	39	
7	1	1	0	0	511	527	504	609	28	39	
8	1	1	0	0	509	506	502	610	29	39	
9	1	1	0	0	509	496	504	609	29	39	
10	1	1	0	0	509	499	508	608	29	39	
11	1	1	0	0	509	507	511	608	29	39	
12	1	1	0	0	508	515	512	607	28	39	
13	1	1	0	0	507	518	512	606	29	39	
14	1	1	0	0	508	511	509	607	29	39	
15	1	1	0	0	506	507	508	606	29	39	
0	1	1	0	0	508	511	509	607	29	39	
1	1	1	0	0	508	511	508	605	29	39	
2	1	1	0	0	509	521	510	604	29	39	
3	1	1	0	0	508	518	507	604	29	38	
4	1	1	0	0	510	503	504	603	29	38	
5	1	1	0	0	514	494	503	602	29	38	
6	1	1	0	0	512	498	505	602	29	38	
7	1	1	0	0	512	508	510	601	29	38	
8	1	1	0	0	511	515	512	601	29	38	
9	1	1	0	0	513	515	510	601	29	38	
10	1	1	0	0	515	516	511	600	29	38	
11	1	1	0	0	514	517	511	599	29	37	
12	1	1	0	0	514	518	510	599	29	37	
13	1	1	0	0	511	515	512	598	29	37	
14	1	1	0	0	510	516	511	599	29	37	
15	1	1	0	0	507	514	511	598	29	37	
0	1	1	0	0	506	514	509	598	29	37	
1	1	1	0	0	507	512	510	599	29	37	
2	1	1	0	0	506	514	510	598	29	36	
3	1	1	0	0	506	514	510	598	29	36	
4	1	1	0	0	510	515	511	596	29	36	
5	1	1	0	0	511	516	510	597	29	36	
6	1	1	0	0	514	515	508	598	29	36	
7	1	1	0	0	515	513	510	598	29	36	
8	1	1	0	0	511	515	511	599	29	36	
9	1	1	0	0	515	515	508	600	29	36	
10	1	1	0	0	512	514	509	599	29	35	
11	1	1	0	0	511	515	508	600	29	35	
12	1	1	0	0	512	515	507	599	29	35	
13	1	1	0	0	506	514	507	600	29	35	
14	1	1	0	0	503	514	507	600	29	35	
15	1	1	0	0	509	515	508	600	29	35	
0	1	1	0	0	511	513	510	601	29	35	
1	1	1	0	0	519	514	509	601	29	35	
2	1	1	0	0	520	511	510	601	29	35	
3	1	1	0	0	520	511	508	602	29	35	
4	1	1	0	0	514	512	508	602	28	35	
5	1	1	0	0	505	511	507	602	29	35	
6	1	1	0	0	503	511	511	603	29	35	
7	1	1	0	0	491	513	511	603	29	35	
8	1	1	0	0	482	511	509	604	29	34	
9	1	1	0	0	499	510	510	604	28	34	
10	1	1	0	0	508	511	509	605	29	34	
11	1	1	0	0	510	511	508	605	29	34	
12	1	1	0	0	513	511	509	605	28	34	
13	1	1	0	0	515	514	510	604	28	34	
14	1	1	0	0	513	515	510	604	28	34	
15	1	1	0	0	515	515	511	605	28	34	
0	1	1	0	0	513	514	511	605	29	34	
1	1	1	0	0	516	513	509	606	28	34	
2	1	1	0	0	515	514	508	605	28	34	
3	1	1	0	0	512	514	508	606	28	34	
4	1	1	0	0	513	511	508	606	28	35	
5	1	1	0	0	509	513	508	605	28	35	
6	1	1	0	0	509	512	507	605	28	35	
7	1	1	0	0	509	512	510	606	28	35	
8	1	1	0	0	507	511	512	606	28	35	
9	1	1	0	0	507	510	510	606	28	35	
10	1	1	0	0	508	511	511	606	28	35	
11	1	1	0	0	503	512	512	606	28	35	
12	1	1	0	0	508	512	512	606	27	35	
13	1	1	0	0	509	513	512	605	28	35	
14	1	1	0	0	509	512	508	606	28	35	
15	1	1	0	0	509	513	510	605	28	35	
0	1	1	0	0	509	515	510	605	28	35	
1	1	1	0	0	509	515	510	605	28	35	
2	1	1	0	0	510	513	511	604	27	35	
3	1	1	0	0	514	515	509	605	27	35	
4	1	1	0	0	514	513	507	605	27	35	
5	1	1	0	0	514	512	506	604	27	35	
6	1	1	0	0	511	515	508	604	27	36	
7	1	1	0	0	509	513	509	603	27	36	
8	1	1	0	0	509	513	508	604	28	36	
9	1	1	0	0	508	515	510	603	27	36	
10	1	1	0	0	503	513	508	602	27	36	
11	1	1	0	0	506	514	509	603	27	36	
12	1	1	0	0	509	511	508	603	27	36	
13	1	1	0	0	508	511	511	602	27	36	
14	1	1	0	0	507	510	510	602	27	36	
15	1	1	0	0	511	514	511	601	27	36	
0	1	1	0	0	515	514	509	600	27	36	
1	1	1	0	0	513	511	512	600	27	36	
2	1	1	0	0	513	512	511	600	27	36	
3	1	1	0	0	513	512	509	600	27	36	
4	1	1	0	0	514	514	508	599	27	36	
5	1	1	0	0	512	515	508	598	27	36	
6	1	1	0	0	510	516	509	598	27	36	
7	1	1	0	0	505	513	509	598	27	36	
8	1	1	0	0	508	515	508	598	27	36	
9	1	1	0	0	512	514	506	597	27	36	
10	1	1	0	0	512	514	507	596	27	36	
11	1	1	0	0	512	513	504	596	27	36	
12	1	1	0	0	512	516	509	597	27	36	
13	1	1	0	0	511	512	508	596	27	36	
14	1	1	0	0	507	513	509	595	27	36	
15	1	1	0	0	508	512	509	596	27	36	
0	1	1	0	0	509	511	511	595	28	36	
1	1	1	0	0	507	511	510	595	27	36	
2	1	1	0	0	507	512	508	594	27	36	
3	1	1	0	0	507	513	511	595	27	36	
4	1	1	0	0	510	512	510	595	27	36	
5	1	1	0	0	508	513	511	594	27	36	
6	1	1	0	0	511	513	511	595	27	36	
7	1	1	0	0	511	512	510	595	27	36	
8	1	1	0	0	511	513	510	595	28	36	
9	1	1	0	0	512	513	511	595	27	36	
10	1	1	0	0	514	515	508	595	27	36	
11	1	1	0	0	512	516	510	595	27	36	
12	1	1	0	0	511	516	509	595	27	35	
13	1	1	0	0	515	515	508	595	28	35	
