# OpenSignals Text File Format
# {"20:15:12:22:97:41": {"sensor": ["RAW", "RAW", "RAW", "RAW", "RAW", "RAW"], "device name": "20:15:12:22:97:41", "column": ["nSeq", "I1", "I2", "O1", "O2", "EMG1", "EMG2", "EMG3", "ACC1", "ACC2", "ACC3"], "sync interval": 2, "time": "21:50:11.113", "comments": "", "device connection": "BTH20:15:12:22:97:41", "channels": [1, 2, 3, 4, 5, 6], "date": "2017-4-26", "mode": 0, "digital IO": [0, 0, 1, 1], "firmware version": 1281, "device": "bitalino_rev", "position": 0, "sampling rate": 1000, "label": ["EMG1", "EMG2", "EMG3", "ACC1", "ACC2", "ACC3"], "resolution": [4, 1, 1, 1, 1, 10, 10, 10, 10, 6, 6], "special": [{}, {}, {}, {}, {}, {}]}}
# EndOfHeader
0	1	1	0	0	511	514	508	491	30	38	
1	1	1	0	0	509	512	508	492	30	38	
2	1	1	0	0	507	511	510	492	31	38	
3	1	1	0	0	507	514	511	491	30	38	
4	1	1	0	0	512	513	509	491	30	38	
5	1	1	0	0	519	516	510	492	30	38	
6	1	1	0	0	515	515	509	492	30	38	
7	1	1	0	0	510	516	509	490	30	38	
8	1	1	0	0	510	511	511	491	30	38	
9	1	1	0	0	510	506	506	491	30	38	
10	1	1	0	0	507	510	508	490	31	38	
11	1	1	0	0	509	513	509	491	30	38	
12	1	1	0	0	510	511	508	491	30	38	
13	1	1	0	0	508	503	509	491	30	38	
14	1	1	0	0	508	504	508	491	30	38	
15	1	1	0	0	509	507	509	490	30	38	
0	1	1	0	0	508	511	511	491	30	38	
1	1	1	0	0	511	518	508	491	30	38	
2	1	1	0	0	509	519	508	491	31	38	
3	1	1	0	0	510	519	511	492	30	38	
4	1	1	0	0	510	522	510	492	30	38	
5	1	1	0	0	508	519	510	491	30	38	
6	1	1	0	0	509	518	511	490	30	38	
7	1	1	0	0	511	515	509	490	30	38	
8	1	1	0	0	513	512	507	491	30	38	
9	1	1	0	0	512	509	508	491	30	38	
10	1	1	0	0	511	511	509	491	31	38	
11	1	1	0	0	509	512	508	492	30	38	
12	1	1	0	0	505	512	508	491	30	38	
13	1	1	0	0	500	513	506	491	30	38	
14	1	1	0	0	507	513	508	491	30	38	
15	1	1	0	0	509	511	507	491	30	38	
0	1	1	0	0	507	508	508	491	30	38	
1	1	1	0	0	511	510	508	491	30	38	
2	1	1	0	0	512	506	505	491	31	38	
3	1	1	0	0	512	508	507	492	30	38	
4	1	1	0	0	511	512	511	491	30	38	
5	1	1	0	0	510	515	510	491	30	38	
6	1	1	0	0	510	519	511	492	30	38	
7	1	1	0	0	510	518	511	492	30	38	
8	1	1	0	0	511	521	509	492	30	38	
9	1	1	0	0	512	517	510	492	30	38	
10	1	1	0	0	511	518	510	492	31	38	
11	1	1	0	0	509	518	510	492	30	38	
12	1	1	0	0	509	515	510	492	30	38	
13	1	1	0	0	508	511	509	492	30	38	
14	1	1	0	0	508	512	509	492	30	38	
15	1	1	0	0	508	511	509	491	30	38	
0	1	1	0	0	508	511	511	492	30	38	
1	1	1	0	0	509	514	507	491	30	38	
2	1	1	0	0	510	512	507	491	31	38	
3	1	1	0	0	515	511	508	492	30	38	
4	1	1	0	0	513	508	510	492	30	38	
5	1	1	0	0	511	510	508	492	30	38	
6	1	1	0	0	511	511	509	492	30	38	
7	1	1	0	0	510	515	511	491	30	38	
8	1	1	0	0	508	514	510	492	30	38	
9	1	1	0	0	504	517	512	492	30	38	
10	1	1	0	0	506	519	511	492	31	38	
11	1	1	0	0	510	523	509	492	30	38	
12	1	1	0	0	510	522	511	491	30	38	
13	1	1	0	0	509	521	509	491	30	38	
14	1	1	0	0	513	523	508	491	30	38	
15	1	1	0	0	529	517	508	491	30	38	
0	1	1	0	0	516	504	504	492	30	38	
1	1	1	0	0	512	500	506	492	30	38	
2	1	1	0	0	509	502	508	492	31	38	
3	1	1	0	0	509	504	510	492	30	38	
4	1	1	0	0	506	504	509	492	30	38	
5	1	1	0	0	503	508	510	492	30	38	
6	1	1	0	0	505	510	510	491	30	38	
7	1	1	0	0	506	514	508	491	30	38	
8	1	1	0	0	505	513	507	491	30	38	
9	1	1	0	0	506	511	509	491	30	38	
10	1	1	0	0	509	512	508	492	31	38	
11	1	1	0	0	509	514	509	491	30	38	
12	1	1	0	0	515	514	510	492	30	38	
13	1	1	0	0	513	516	510	492	30	38	
14	1	1	0	0	510	517	508	491	30	38	
15	1	1	0	0	511	515	510	491	30	38	
0	1	1	0	0	510	520	511	491	30	38	
1	1	1	0	0	511	520	509	491	30	38	
2	1	1	0	0	508	518	510	492	31	38	
3	1	1	0	0	509	518	508	491	30	38	
4	1	1	0	0	509	517	510	490	30	38	
5	1	1	0	0	512	515	510	490	30	38	
6	1	1	0	0	512	510	506	490	30	38	
7	1	1	0	0	510	509	505	490	30	38	
8	1	1	0	0	510	510	509	490	30	38	
9	1	1	0	0	510	510	510	490	30	38	
10	1	1	0	0	507	512	511	490	31	38	
11	1	1	0	0	510	512	510	491	30	38	
12	1	1	0	0	509	512	512	491	30	38	
13	1	1	0	0	509	515	511	490	30	38	
14	1	1	0	0	508	515	508	491	30	38	
15	1	1	0	0	510	510	509	489	30	38	
0	1	1	0	0	510	507	509	490	30	38	
1	1	1	0	0	509	513	508	490	30	38	
2	1	1	0	0	513	512	509	489	31	38	
3	1	1	0	0	513	514	508	490	30	38	
4	1	1	0	0	511	517	508	489	30	38	
5	1	1	0	0	510	517	508	490	30	38	
6	1	1	0	0	508	515	510	490	30	38	
7	1	1	0	0	509	513	509	489	30	38	
8	1	1	0	0	510	513	509	491	30	38	
9	1	1	0	0	511	513	509	491	30	38	
10	1	1	0	0	511	513	508	490	31	38	
11	1	1	0	0	509	512	507	491	30	38	
12	1	1	0	0	508	516	508	490	30	38	
13	1	1	0	0	508	516	508	490	30	38	
14	1	1	0	0	509	514	510	489	30	38	
15	1	1	0	0	507	515	508	489	30	38	
0	1	1	0	0	508	511	511	489	30	38	
1	1	1	0	0	511	507	511	490	30	38	
2	1	1	0	0	511	502	511	490	31	38	
3	1	1	0	0	510	506	510	489	30	38	
4	1	1	0	0	507	516	511	489	30	38	
5	1	1	0	0	511	519	510	490	30	38	
6	1	1	0	0	512	519	511	490	30	38	
7	1	1	0	0	512	518	510	489	30	38	
8	1	1	0	0	511	519	509	489	30	38	
9	1	1	0	0	509	515	509	489	30	38	
10	1	1	0	0	511	514	509	489	31	38	
11	1	1	0	0	509	513	511	489	30	38	
12	1	1	0	0	509	513	509	490	30	38	
13	1	1	0	0	511	511	511	489	30	38	
14	1	1	0	0	511	508	507	489	30	38	
15	1	1	0	0	510	508	509	489	30	38	
0	1	1	0	0	510	509	508	489	30	38	
1	1	1	0	0	510	512	507	489	30	38	
2	1	1	0	0	507	514	510	489	30	38	
3	1	1	0	0	506	515	507	489	30	38	
4	1	1	0	0	509	514	510	488	30	38	
5	1	1	0	0	510	516	508	489	30	38	
6	1	1	0	0	511	514	510	489	30	38	
7	1	1	0	0	510	512	509	487	30	38	
8	1	1	0	0	510	513	510	489	30	38	
9	1	1	0	0	509	514	511	490	30	38	
10	1	1	0	0	509	519	510	490	30	38	
11	1	1	0	0	512	523	509	490	30	38	
12	1	1	0	0	512	523	509	489	30	38	
13	1	1	0	0	505	516	508	490	30	38	
14	1	1	0	0	508	514	508	490	30	38	
15	1	1	0	0	513	503	507	488	30	38	
0	1	1	0	0	516	497	505	489	30	38	
1	1	1	0	0	509	500	508	490	30	38	
2	1	1	0	0	508	509	509	490	31	38	
3	1	1	0	0	510	512	509	490	30	38	
4	1	1	0	0	510	513	508	489	30	38	
5	1	1	0	0	510	516	508	490	30	38	
6	1	1	0	0	510	517	510	490	30	38	
7	1	1	0	0	509	517	509	489	30	38	
8	1	1	0	0	509	516	510	490	30	38	
9	1	1	0	0	508	517	510	491	30	38	
10	1	1	0	0	507	514	512	490	31	38	
11	1	1	0	0	509	513	510	491	30	38	
12	1	1	0	0	508	513	510	490	30	38	
13	1	1	0	0	509	518	507	490	30	38	
14	1	1	0	0	510	515	507	489	30	38	
15	1	1	0	0	512	513	507	489	30	38	
0	1	1	0	0	513	515	508	489	30	38	
1	1	1	0	0	510	513	509	490	30	38	
2	1	1	0	0	511	514	509	491	31	38	
3	1	1	0	0	512	517	509	491	30	38	
4	1	1	0	0	509	515	507	491	30	38	
5	1	1	0	0	511	514	508	491	30	38	
6	1	1	0	0	511	511	508	491	30	38	
7	1	1	0	0	508	513	507	490	30	38	
8	1	1	0	0	503	512	508	490	30	38	
9	1	1	0	0	506	514	508	490	30	38	
10	1	1	0	0	512	512	508	490	31	38	
11	1	1	0	0	510	511	508	490	30	38	
12	1	1	0	0	511	510	508	490	30	38	
13	1	1	0	0	510	509	511	490	30	38	
14	1	1	0	0	510	509	511	491	30	38	
15	1	1	0	0	509	514	511	490	30	38	
0	1	1	0	0	509	515	508	492	30	38	
1	1	1	0	0	511	515	509	491	30	38	
2	1	1	0	0	512	516	511	491	31	38	
3	1	1	0	0	513	516	508	492	30	38	
4	1	1	0	0	510	518	508	491	30	38	
5	1	1	0	0	511	516	510	491	30	38	
6	1	1	0	0	511	515	510	491	30	38	
7	1	1	0	0	511	516	507	489	30	38	
8	1	1	0	0	510	513	508	490	30	38	
9	1	1	0	0	509	512	508	491	30	38	
10	1	1	0	0	507	513	509	491	31	38	
11	1	1	0	0	508	512	511	492	30	38	
12	1	1	0	0	508	511	509	491	30	38	
13	1	1	0	0	510	511	510	492	30	38	
14	1	1	0	0	510	514	509	492	30	38	
15	1	1	0	0	510	511	510	491	30	38	
0	1	1	0	0	510	512	510	492	30	38	
1	1	1	0	0	508	512	508	492	30	38	
2	1	1	0	0	507	513	508	492	31	38	
3	1	1	0	0	507	514	508	491	30	38	
4	1	1	0	0	509	514	508	491	30	38	
5	1	1	0	0	508	516	509	491	30	38	
6	1	1	0	0	511	513	509	491	30	38	
7	1	1	0	0	517	515	510	491	30	38	
8	1	1	0	0	519	513	509	492	30	38	
9	1	1	0	0	513	515	509	492	30	38	
10	1	1	0	0	511	515	509	492	31	38	
11	1	1	0	0	509	511	511	492	30	38	
12	1	1	0	0	509	511	508	492	31	38	
13	1	1	0	0	511	514	508	491	30	38	
14	1	1	0	0	510	511	508	491	30	38	
15	1	1	0	0	509	515	511	491	30	38	
0	1	1	0	0	508	515	510	492	30	38	
1	1	1	0	0	507	515	508	492	30	38	
2	1	1	0	0	509	513	510	492	31	38	
3	1	1	0	0	509	513	510	493	30	38	
4	1	1	0	0	509	514	508	492	30	38	
5	1	1	0	0	510	507	508	492	30	38	
6	1	1	0	0	510	508	509	492	30	38	
7	1	1	0	0	510	509	508	492	30	38	
8	1	1	0	0	509	513	508	492	30	38	
9	1	1	0	0	509	513	507	492	30	38	
10	1	1	0	0	508	515	510	491	31	38	
11	1	1	0	0	509	519	510	492	30	38	
12	1	1	0	0	508	518	511	491	30	38	
13	1	1	0	0	511	515	510	492	30	38	
14	1	1	0	0	513	515	510	492	30	38	
15	1	1	0	0	511	514	510	492	30	38	
0	1	1	0	0	513	516	507	492	30	38	
1	1	1	0	0	510	515	509	492	30	38	
2	1	1	0	0	509	513	510	492	31	38	
3	1	1	0	0	510	514	510	492	30	38	
4	1	1	0	0	509	513	510	492	30	38	
5	1	1	0	0	511	514	508	492	30	38	
6	1	1	0	0	510	510	511	492	30	38	
7	1	1	0	0	510	512	508	492	30	38	
8	1	1	0	0	512	511	510	492	30	38	
9	1	1	0	0	508	513	508	492	30	38	
10	1	1	0	0	505	512	510	493	31	38	
11	1	1	0	0	505	513	511	492	30	38	
12	1	1	0	0	508	512	510	493	30	38	
13	1	1	0	0	511	513	508	492	30	38	
14	1	1	0	0	513	515	509	492	30	38	
15	1	1	0	0	510	514	509	491	30	38	
0	1	1	0	0	513	515	509	492	30	38	
1	1	1	0	0	527	511	508	491	30	38	
2	1	1	0	0	516	512	509	491	31	38	
3	1	1	0	0	510	513	508	491	30	38	
4	1	1	0	0	504	512	509	492	30	38	
5	1	1	0	0	507	513	508	492	30	38	
6	1	1	0	0	507	513	509	492	30	38	
7	1	1	0	0	506	514	508	491	30	38	
8	1	1	0	0	507	510	509	492	30	38	
9	1	1	0	0	507	513	510	492	30	38	
10	1	1	0	0	508	513	509	492	31	38	
11	1	1	0	0	510	512	510	492	30	38	
12	1	1	0	0	508	513	507	491	30	38	
13	1	1	0	0	510	514	507	491	30	38	
14	1	1	0	0	509	515	508	490	30	38	
15	1	1	0	0	513	512	508	490	30	38	
0	1	1	0	0	510	513	508	492	30	38	
1	1	1	0	0	510	516	508	491	30	38	
2	1	1	0	0	510	519	510	491	31	38	
3	1	1	0	0	511	517	509	492	30	38	
4	1	1	0	0	512	518	512	492	31	38	
5	1	1	0	0	506	519	509	492	30	38	
6	1	1	0	0	508	512	507	491	30	38	
7	1	1	0	0	508	501	508	490	31	38	
8	1	1	0	0	510	504	507	491	31	38	
9	1	1	0	0	510	508	510	490	31	38	
10	1	1	0	0	508	509	509	491	31	38	
11	1	1	0	0	508	511	512	492	31	38	
12	1	1	0	0	508	513	509	491	31	38	
13	1	1	0	0	507	515	507	492	31	38	
14	1	1	0	0	506	515	510	491	30	37	
15	1	1	0	0	513	512	510	490	31	37	
0	1	1	0	0	518	511	510	491	31	38	
1	1	1	0	0	513	512	506	491	31	38	
2	1	1	0	0	507	513	510	492	31	38	
3	1	1	0	0	507	515	509	492	31	38	
4	1	1	0	0	508	515	509	491	31	37	
5	1	1	0	0	508	515	509	491	31	38	
6	1	1	0	0	507	515	510	491	30	38	
7	1	1	0	0	511	516	508	491	31	38	
8	1	1	0	0	514	520	509	492	31	37	
9	1	1	0	0	513	516	509	492	31	38	
10	1	1	0	0	511	519	508	492	31	37	
11	1	1	0	0	511	519	510	492	31	37	
12	1	1	0	0	510	519	510	492	31	37	
13	1	1	0	0	512	516	510	492	31	38	
14	1	1	0	0	511	514	510	492	30	37	
15	1	1	0	0	513	512	511	492	31	38	
0	1	1	0	0	512	513	508	492	31	38	
1	1	1	0	0	511	510	505	492	31	38	
2	1	1	0	0	509	508	506	492	31	38	
3	1	1	0	0	504	510	507	492	31	37	
4	1	1	0	0	504	510	507	492	31	38	
5	1	1	0	0	509	512	508	492	31	38	
6	1	1	0	0	508	511	510	492	30	37	
7	1	1	0	0	506	513	509	492	31	37	
8	1	1	0	0	506	515	509	492	31	37	
9	1	1	0	0	507	515	510	493	31	38	
10	1	1	0	0	519	515	509	492	31	38	
11	1	1	0	0	516	515	508	493	31	38	
12	1	1	0	0	513	512	509	492	31	38	
13	1	1	0	0	510	513	508	492	31	38	
14	1	1	0	0	510	514	508	492	30	38	
15	1	1	0	0	511	513	509	491	31	38	
0	1	1	0	0	507	512	510	492	31	38	
1	1	1	0	0	510	512	509	493	31	38	
2	1	1	0	0	508	512	509	492	31	38	
3	1	1	0	0	510	511	509	493	31	38	
4	1	1	0	0	505	514	510	492	31	38	
5	1	1	0	0	506	513	510	493	31	38	
6	1	1	0	0	504	517	510	493	30	38	
7	1	1	0	0	503	512	509	492	31	38	
8	1	1	0	0	508	515	508	492	31	38	
9	1	1	0	0	514	509	508	492	31	38	
10	1	1	0	0	516	509	507	492	31	38	
11	1	1	0	0	515	511	510	492	31	38	
12	1	1	0	0	510	514	510	492	30	38	
13	1	1	0	0	511	515	511	492	31	38	
14	1	1	0	0	510	514	509	492	30	38	
15	1	1	0	0	512	513	508	493	31	38	
0	1	1	0	0	511	514	507	492	31	38	
1	1	1	0	0	510	515	509	492	31	38	
2	1	1	0	0	510	514	510	492	31	38	
3	1	1	0	0	510	512	510	492	31	38	
4	1	1	0	0	509	514	509	492	31	38	
5	1	1	0	0	509	513	509	492	31	38	
6	1	1	0	0	511	513	510	492	30	38	
7	1	1	0	0	511	514	510	491	30	38	
8	1	1	0	0	509	515	509	492	30	38	
9	1	1	0	0	509	519	510	493	31	38	
10	1	1	0	0	511	519	509	492	31	38	
11	1	1	0	0	510	518	506	493	31	38	
12	1	1	0	0	511	517	508	492	31	38	
13	1	1	0	0	510	517	511	492	31	38	
14	1	1	0	0	511	518	511	492	30	38	
15	1	1	0	0	507	515	510	492	31	38	
0	1	1	0	0	510	514	508	492	31	38	
1	1	1	0	0	511	513	509	492	31	38	
2	1	1	0	0	508	504	508	492	31	38	
3	1	1	0	0	506	495	507	493	31	38	
4	1	1	0	0	505	505	508	492	30	38	
5	1	1	0	0	505	507	509	493	30	38	
6	1	1	0	0	509	508	510	493	30	38	
7	1	1	0	0	511	512	509	492	30	38	
8	1	1	0	0	510	514	508	492	30	38	
9	1	1	0	0	511	515	510	492	31	38	
10	1	1	0	0	511	516	508	492	31	38	
11	1	1	0	0	511	518	509	492	30	38	
12	1	1	0	0	513	513	510	492	30	38	
13	1	1	0	0	513	516	509	493	30	38	
14	1	1	0	0	511	519	510	492	30	38	
15	1	1	0	0	507	519	510	492	30	38	
0	1	1	0	0	504	519	510	492	30	38	
1	1	1	0	0	507	518	511	493	30	38	
2	1	1	0	0	508	517	510	493	31	38	
3	1	1	0	0	510	518	510	493	30	38	
4	1	1	0	0	510	514	511	492	30	38	
5	1	1	0	0	515	514	510	494	30	38	
6	1	1	0	0	526	511	507	493	30	38	
7	1	1	0	0	518	508	508	492	30	38	
8	1	1	0	0	511	509	508	493	30	38	
9	1	1	0	0	504	509	509	494	30	38	
10	1	1	0	0	505	512	508	493	31	38	
11	1	1	0	0	505	511	507	493	30	38	
12	1	1	0	0	506	510	510	493	30	38	
13	1	1	0	0	511	513	511	492	30	38	
14	1	1	0	0	520	514	509	493	30	38	
15	1	1	0	0	516	513	512	493	30	38	
0	1	1	0	0	513	516	510	494	30	38	
1	1	1	0	0	510	515	509	494	30	38	
2	1	1	0	0	506	518	508	494	31	38	
3	1	1	0	0	508	517	507	494	30	38	
4	1	1	0	0	507	512	508	493	30	38	
5	1	1	0	0	508	515	508	494	30	38	
6	1	1	0	0	508	515	509	493	30	38	
7	1	1	0	0	508	514	508	492	30	38	
8	1	1	0	0	510	513	510	493	30	38	
9	1	1	0	0	505	512	509	494	30	38	
10	1	1	0	0	503	512	508	494	31	38	
11	1	1	0	0	499	514	512	494	30	38	
12	1	1	0	0	500	513	510	494	30	38	
13	1	1	0	0	502	515	508	493	30	38	
14	1	1	0	0	535	514	509	494	30	38	
15	1	1	0	0	532	515	509	493	30	38	
0	1	1	0	0	515	514	508	493	30	38	
1	1	1	0	0	509	517	509	493	30	38	
2	1	1	0	0	508	513	508	493	30	38	
3	1	1	0	0	507	512	507	493	30	38	
4	1	1	0	0	505	510	508	494	30	38	
5	1	1	0	0	504	511	509	494	30	38	
6	1	1	0	0	507	512	508	493	30	38	
7	1	1	0	0	513	512	507	492	30	38	
8	1	1	0	0	514	511	510	493	30	38	
9	1	1	0	0	509	512	509	493	30	38	
10	1	1	0	0	510	512	510	493	30	38	
11	1	1	0	0	510	513	510	493	30	38	
12	1	1	0	0	507	513	509	493	30	38	
13	1	1	0	0	508	512	510	492	30	38	
14	1	1	0	0	503	513	510	491	30	38	
15	1	1	0	0	502	515	509	491	30	38	
0	1	1	0	0	515	514	509	492	30	38	
1	1	1	0	0	510	515	508	492	30	38	
2	1	1	0	0	518	516	507	492	30	38	
3	1	1	0	0	515	516	509	492	30	38	
4	1	1	0	0	510	517	508	492	30	38	
5	1	1	0	0	510	516	508	492	30	38	
6	1	1	0	0	509	515	508	492	30	38	
7	1	1	0	0	507	512	510	491	30	38	
8	1	1	0	0	507	510	508	491	30	38	
9	1	1	0	0	510	508	510	492	30	38	
10	1	1	0	0	512	509	510	490	30	38	
11	1	1	0	0	513	510	508	491	30	38	
12	1	1	0	0	515	512	507	490	30	38	
13	1	1	0	0	515	513	507	490	30	38	
14	1	1	0	0	508	512	508	491	30	38	
15	1	1	0	0	497	513	508	490	30	38	
0	1	1	0	0	499	515	507	491	30	38	
1	1	1	0	0	505	514	511	489	30	38	
2	1	1	0	0	507	519	510	490	30	38	
3	1	1	0	0	508	520	507	491	30	38	
4	1	1	0	0	511	520	508	489	30	38	
5	1	1	0	0	513	516	512	490	30	38	
6	1	1	0	0	512	507	509	489	30	38	
7	1	1	0	0	511	506	507	488	30	38	
8	1	1	0	0	512	509	508	489	30	38	
9	1	1	0	0	514	511	510	488	30	38	
10	1	1	0	0	507	513	508	489	30	38	
11	1	1	0	0	503	507	507	489	30	38	
12	1	1	0	0	508	507	507	489	30	38	
13	1	1	0	0	511	507	511	489	30	38	
14	1	1	0	0	513	512	508	489	30	38	
15	1	1	0	0	509	513	508	489	30	38	
0	1	1	0	0	513	515	508	489	30	38	
1	1	1	0	0	519	516	511	488	30	38	
2	1	1	0	0	511	515	509	488	30	38	
3	1	1	0	0	510	514	510	488	30	38	
4	1	1	0	0	509	517	507	488	30	38	
5	1	1	0	0	509	519	506	489	30	38	
6	1	1	0	0	504	524	507	489	30	38	
7	1	1	0	0	505	525	509	488	30	38	
8	1	1	0	0	514	527	510	489	30	38	
9	1	1	0	0	516	524	510	489	30	38	
10	1	1	0	0	512	521	511	488	30	38	
11	1	1	0	0	508	515	509	489	30	38	
12	1	1	0	0	511	510	509	489	30	38	
13	1	1	0	0	513	503	513	489	30	38	
14	1	1	0	0	509	491	510	488	30	38	
15	1	1	0	0	510	497	509	487	30	38	
0	1	1	0	0	512	499	510	488	30	38	
1	1	1	0	0	511	504	510	489	30	38	
2	1	1	0	0	511	507	511	489	30	38	
3	1	1	0	0	511	515	508	489	30	38	
4	1	1	0	0	509	514	508	490	30	38	
5	1	1	0	0	508	513	510	489	30	38	
6	1	1	0	0	507	519	508	489	30	38	
7	1	1	0	0	509	518	511	488	30	38	
8	1	1	0	0	509	518	512	489	30	38	
9	1	1	0	0	507	525	514	488	30	38	
10	1	1	0	0	508	527	511	488	30	38	
11	1	1	0	0	511	529	510	489	30	38	
12	1	1	0	0	511	522	508	489	30	38	
13	1	1	0	0	509	515	508	489	30	38	
14	1	1	0	0	511	511	508	490	30	38	
15	1	1	0	0	511	509	505	489	30	38	
0	1	1	0	0	507	504	504	489	30	38	
1	1	1	0	0	510	504	506	490	30	38	
2	1	1	0	0	512	504	508	490	30	38	
3	1	1	0	0	513	504	510	491	30	38	
4	1	1	0	0	512	505	510	490	30	38	
5	1	1	0	0	511	511	508	491	30	38	
6	1	1	0	0	508	515	509	489	30	38	
7	1	1	0	0	506	513	511	490	30	38	
8	1	1	0	0	511	516	511	491	30	38	
9	1	1	0	0	510	518	509	492	30	38	
10	1	1	0	0	506	517	509	491	30	38	
11	1	1	0	0	508	516	508	491	30	38	
12	1	1	0	0	510	515	507	492	30	38	
13	1	1	0	0	508	513	509	491	30	38	
14	1	1	0	0	513	512	508	492	30	38	
15	1	1	0	0	513	515	505	491	30	38	
0	1	1	0	0	510	515	507	491	30	38	
1	1	1	0	0	507	516	508	491	30	38	
2	1	1	0	0	507	515	509	490	30	38	
3	1	1	0	0	504	515	508	491	30	38	
4	1	1	0	0	504	516	509	491	30	38	
5	1	1	0	0	509	515	511	491	30	38	
6	1	1	0	0	510	514	511	491	30	38	
7	1	1	0	0	516	512	512	491	30	38	
8	1	1	0	0	523	515	511	492	30	38	
9	1	1	0	0	512	515	508	491	30	38	
10	1	1	0	0	513	512	509	491	31	38	
11	1	1	0	0	511	507	508	491	30	38	
12	1	1	0	0	509	509	507	491	30	38	
13	1	1	0	0	507	513	507	490	30	38	
14	1	1	0	0	508	513	509	491	30	38	
15	1	1	0	0	510	513	508	489	30	38	
0	1	1	0	0	511	512	510	490	30	38	
1	1	1	0	0	506	512	511	490	30	38	
2	1	1	0	0	507	515	512	491	30	38	
3	1	1	0	0	506	513	515	491	30	38	
4	1	1	0	0	503	515	511	491	30	38	
5	1	1	0	0	501	518	508	491	30	38	
6	1	1	0	0	502	517	502	491	30	38	
7	1	1	0	0	508	515	504	490	30	38	
8	1	1	0	0	534	513	505	490	30	38	
9	1	1	0	0	519	510	505	491	30	38	
10	1	1	0	0	512	508	508	490	30	38	
11	1	1	0	0	510	511	510	491	30	38	
12	1	1	0	0	508	512	510	491	30	38	
13	1	1	0	0	515	513	511	491	30	38	
14	1	1	0	0	513	511	511	491	30	38	
15	1	1	0	0	505	512	511	490	30	38	
0	1	1	0	0	511	511	512	491	30	38	
1	1	1	0	0	512	512	511	491	30	38	
2	1	1	0	0	505	514	508	491	30	38	
3	1	1	0	0	502	515	509	491	30	38	
4	1	1	0	0	512	516	508	490	30	38	
5	1	1	0	0	505	515	508	490	30	38	
6	1	1	0	0	510	514	509	490	30	38	
7	1	1	0	0	509	514	508	489	30	38	
8	1	1	0	0	506	516	509	490	30	38	
9	1	1	0	0	509	518	510	491	30	38	
10	1	1	0	0	521	516	508	491	30	38	
11	1	1	0	0	516	519	508	491	30	38	
12	1	1	0	0	510	514	509	492	30	38	
13	1	1	0	0	509	515	509	492	30	38	
14	1	1	0	0	508	513	506	491	30	38	
15	1	1	0	0	508	509	505	492	30	38	
0	1	1	0	0	509	506	509	491	30	38	
1	1	1	0	0	509	509	511	492	30	38	
2	1	1	0	0	511	509	511	491	31	38	
3	1	1	0	0	515	510	509	492	30	38	
4	1	1	0	0	515	511	511	492	30	38	
5	1	1	0	0	509	513	508	492	30	38	
6	1	1	0	0	510	511	510	493	30	38	
7	1	1	0	0	504	514	511	492	30	38	
8	1	1	0	0	509	515	507	493	30	38	
9	1	1	0	0	505	515	505	492	30	38	
10	1	1	0	0	500	518	507	493	30	38	
11	1	1	0	0	499	515	508	493	30	38	
12	1	1	0	0	497	520	510	492	30	38	
13	1	1	0	0	500	518	512	492	30	38	
14	1	1	0	0	508	515	510	492	30	38	
15	1	1	0	0	507	515	509	491	30	38	
0	1	1	0	0	510	512	507	492	30	38	
1	1	1	0	0	525	512	508	492	30	38	
2	1	1	0	0	524	507	509	492	31	38	
3	1	1	0	0	504	502	510	493	30	38	
4	1	1	0	0	495	506	509	493	30	38	
5	1	1	0	0	508	507	511	493	30	38	
6	1	1	0	0	541	510	510	493	30	38	
7	1	1	0	0	549	516	510	493	30	38	
8	1	1	0	0	517	519	508	494	30	38	
9	1	1	0	0	507	522	508	493	30	38	
10	1	1	0	0	503	519	508	493	31	38	
11	1	1	0	0	507	519	509	493	30	38	
12	1	1	0	0	508	514	507	493	30	38	
13	1	1	0	0	505	509	507	493	30	38	
14	1	1	0	0	506	511	507	493	30	38	
15	1	1	0	0	509	512	508	493	30	38	
0	1	1	0	0	509	512	509	493	30	38	
1	1	1	0	0	504	516	510	493	30	38	
2	1	1	0	0	504	517	510	494	31	38	
3	1	1	0	0	508	514	510	494	30	38	
4	1	1	0	0	495	507	509	494	30	38	
5	1	1	0	0	506	507	510	493	30	38	
6	1	1	0	0	512	508	509	493	30	38	
7	1	1	0	0	514	512	508	493	30	38	
8	1	1	0	0	515	517	508	493	30	38	
9	1	1	0	0	521	516	508	493	30	38	
10	1	1	0	0	513	514	510	494	30	38	
11	1	1	0	0	510	514	508	494	30	38	
12	1	1	0	0	499	513	506	493	30	38	
13	1	1	0	0	511	513	508	495	30	38	
14	1	1	0	0	509	508	507	494	30	38	
15	1	1	0	0	510	505	506	493	30	38	
0	1	1	0	0	511	507	508	495	30	38	
1	1	1	0	0	512	507	510	494	30	38	
2	1	1	0	0	498	510	512	495	31	38	
3	1	1	0	0	512	513	508	495	30	38	
4	1	1	0	0	511	516	508	494	30	38	
5	1	1	0	0	501	521	509	494	30	38	
6	1	1	0	0	505	520	510	495	30	38	
7	1	1	0	0	513	520	512	494	30	38	
8	1	1	0	0	514	518	509	494	30	38	
9	1	1	0	0	512	518	509	495	30	38	
10	1	1	0	0	511	516	508	495	31	38	
11	1	1	0	0	508	514	509	496	30	38	
12	1	1	0	0	510	510	510	495	30	38	
13	1	1	0	0	505	513	510	496	30	38	
14	1	1	0	0	504	515	511	495	30	38	
15	1	1	0	0	515	514	510	495	30	38	
0	1	1	0	0	513	511	508	495	30	38	
1	1	1	0	0	519	512	507	495	30	38	
2	1	1	0	0	524	512	509	496	30	38	
3	1	1	0	0	508	514	509	496	30	38	
4	1	1	0	0	503	515	509	495	30	38	
5	1	1	0	0	502	517	510	496	30	38	
6	1	1	0	0	510	516	508	496	30	38	
7	1	1	0	0	510	515	508	496	30	38	
8	1	1	0	0	507	516	507	496	30	38	
9	1	1	0	0	505	515	508	496	30	38	
10	1	1	0	0	507	516	509	496	31	38	
11	1	1	0	0	509	515	509	496	30	38	
12	1	1	0	0	510	514	508	496	30	38	
13	1	1	0	0	523	513	508	495	30	38	
14	1	1	0	0	514	512	510	495	30	38	
15	1	1	0	0	507	512	508	495	30	38	
0	1	1	0	0	505	511	508	496	30	38	
1	1	1	0	0	508	511	511	495	30	38	
2	1	1	0	0	508	513	508	496	31	38	
3	1	1	0	0	503	510	509	496	30	38	
4	1	1	0	0	520	509	509	496	30	38	
5	1	1	0	0	528	511	510	495	30	38	
6	1	1	0	0	512	510	510	496	30	38	
7	1	1	0	0	510	513	508	495	30	38	
8	1	1	0	0	517	514	511	494	30	38	
9	1	1	0	0	510	513	511	495	30	38	
10	1	1	0	0	508	514	512	495	31	38	
11	1	1	0	0	507	515	510	495	30	38	
12	1	1	0	0	508	517	510	495	30	38	
13	1	1	0	0	507	516	508	495	30	38	
14	1	1	0	0	505	517	509	496	30	38	
15	1	1	0	0	506	512	508	494	30	38	
0	1	1	0	0	506	515	509	495	30	38	
1	1	1	0	0	509	512	511	495	30	38	
2	1	1	0	0	507	511	510	495	31	38	
3	1	1	0	0	506	512	509	495	30	38	
4	1	1	0	0	508	513	509	495	30	38	
5	1	1	0	0	511	510	509	495	30	38	
6	1	1	0	0	515	511	511	495	30	38	
7	1	1	0	0	512	512	508	495	30	38	
8	1	1	0	0	511	515	507	495	30	38	
9	1	1	0	0	509	513	509	496	30	38	
10	1	1	0	0	509	514	508	495	31	38	
11	1	1	0	0	509	515	510	496	30	38	
12	1	1	0	0	508	513	510	496	30	38	
13	1	1	0	0	508	511	509	495	30	38	
14	1	1	0	0	509	510	509	495	30	38	
15	1	1	0	0	509	512	506	495	30	38	
0	1	1	0	0	512	513	509	495	30	38	
1	1	1	0	0	511	513	510	494	30	38	
2	1	1	0	0	511	515	508	496	31	38	
3	1	1	0	0	513	515	508	496	30	38	
4	1	1	0	0	514	519	507	496	30	38	
5	1	1	0	0	513	518	509	496	30	38	
6	1	1	0	0	506	513	508	495	30	38	
7	1	1	0	0	506	508	508	495	30	38	
8	1	1	0	0	501	509	510	495	30	38	
9	1	1	0	0	505	513	509	495	30	38	
10	1	1	0	0	508	514	511	495	31	38	
11	1	1	0	0	514	510	508	495	30	38	
12	1	1	0	0	519	507	511	495	30	38	
13	1	1	0	0	512	511	510	495	30	38	
14	1	1	0	0	509	515	510	496	30	38	
15	1	1	0	0	508	519	511	495	30	38	
0	1	1	0	0	508	518	508	495	30	38	
1	1	1	0	0	510	516	509	495	30	38	
2	1	1	0	0	508	515	509	495	31	38	
3	1	1	0	0	511	509	508	496	30	38	
4	1	1	0	0	512	508	511	495	30	38	
5	1	1	0	0	513	512	510	495	30	38	
6	1	1	0	0	519	515	509	496	30	38	
7	1	1	0	0	512	514	507	494	30	38	
8	1	1	0	0	506	514	507	496	30	38	
9	1	1	0	0	512	513	508	496	30	38	
10	1	1	0	0	511	510	508	496	30	38	
11	1	1	0	0	508	510	509	496	30	38	
12	1	1	0	0	506	511	510	496	30	38	
13	1	1	0	0	507	513	509	496	30	38	
14	1	1	0	0	510	515	510	496	30	38	
15	1	1	0	0	509	512	509	496	30	38	
0	1	1	0	0	509	515	509	496	30	38	
1	1	1	0	0	510	514	509	496	30	38	
2	1	1	0	0	511	516	508	496	31	38	
3	1	1	0	0	512	516	511	496	30	38	
4	1	1	0	0	509	518	509	495	30	38	
5	1	1	0	0	510	519	510	496	30	38	
6	1	1	0	0	505	514	511	496	30	38	
7	1	1	0	0	506	518	510	496	30	38	
8	1	1	0	0	512	522	510	496	30	38	
9	1	1	0	0	513	519	509	497	30	38	
10	1	1	0	0	515	515	509	497	31	38	
11	1	1	0	0	508	512	507	497	30	38	
12	1	1	0	0	521	503	505	497	30	38	
13	1	1	0	0	505	501	509	497	30	38	
14	1	1	0	0	504	504	506	496	30	38	
15	1	1	0	0	505	508	507	496	30	38	
0	1	1	0	0	510	508	510	496	30	38	
1	1	1	0	0	516	511	507	496	30	38	
2	1	1	0	0	512	511	505	496	31	38	
3	1	1	0	0	508	513	508	496	30	38	
4	1	1	0	0	507	513	511	497	30	38	
5	1	1	0	0	509	514	510	497	30	38	
6	1	1	0	0	512	517	509	497	30	38	
7	1	1	0	0	509	516	509	497	30	38	
8	1	1	0	0	509	517	512	497	30	38	
9	1	1	0	0	509	517	510	497	30	38	
10	1	1	0	0	510	518	508	497	31	38	
11	1	1	0	0	508	518	510	497	30	38	
12	1	1	0	0	508	519	509	497	30	38	
13	1	1	0	0	506	518	509	497	30	38	
14	1	1	0	0	505	519	510	497	30	38	
15	1	1	0	0	504	519	509	497	30	38	
0	1	1	0	0	508	517	509	497	30	38	
1	1	1	0	0	514	516	508	497	30	38	
2	1	1	0	0	511	514	508	497	31	38	
3	1	1	0	0	510	505	508	498	30	38	
4	1	1	0	0	507	505	510	497	30	38	
5	1	1	0	0	526	509	509	497	30	38	
6	1	1	0	0	519	509	509	497	30	38	
7	1	1	0	0	516	507	508	497	30	38	
8	1	1	0	0	508	507	507	497	30	38	
9	1	1	0	0	507	508	508	497	30	38	
10	1	1	0	0	504	512	508	496	31	38	
11	1	1	0	0	502	515	512	497	30	38	
12	1	1	0	0	503	517	510	496	30	38	
13	1	1	0	0	507	519	511	497	30	38	
14	1	1	0	0	507	517	510	496	30	38	
15	1	1	0	0	505	517	510	496	30	38	
0	1	1	0	0	527	508	509	496	30	38	
1	1	1	0	0	530	508	509	496	30	38	
2	1	1	0	0	512	511	508	497	31	38	
3	1	1	0	0	503	515	509	497	30	38	
4	1	1	0	0	503	515	510	496	30	38	
5	1	1	0	0	508	516	510	496	30	38	
6	1	1	0	0	509	513	508	496	30	38	
7	1	1	0	0	511	516	509	495	30	38	
8	1	1	0	0	506	513	508	495	30	38	
9	1	1	0	0	508	513	508	496	30	38	
10	1	1	0	0	505	514	508	496	31	38	
11	1	1	0	0	506	514	511	496	30	38	
12	1	1	0	0	509	512	510	495	30	38	
13	1	1	0	0	515	515	505	495	30	38	
14	1	1	0	0	515	515	507	496	30	38	
15	1	1	0	0	510	515	510	495	30	38	
0	1	1	0	0	515	515	508	495	30	38	
1	1	1	0	0	512	514	507	495	31	38	
2	1	1	0	0	508	514	508	494	31	38	
3	1	1	0	0	511	513	508	495	30	38	
4	1	1	0	0	511	513	509	494	30	38	
5	1	1	0	0	508	512	507	494	30	38	
6	1	1	0	0	509	511	510	495	30	38	
7	1	1	0	0	507	514	508	494	30	38	
8	1	1	0	0	508	516	509	495	30	38	
9	1	1	0	0	508	514	508	495	30	38	
10	1	1	0	0	510	513	507	495	31	38	
11	1	1	0	0	510	515	509	496	30	38	
12	1	1	0	0	510	512	509	494	30	38	
13	1	1	0	0	509	513	507	494	30	38	
14	1	1	0	0	507	512	510	494	30	38	
15	1	1	0	0	509	513	508	493	30	38	
0	1	1	0	0	511	512	510	494	30	38	
1	1	1	0	0	508	513	509	494	30	38	
2	1	1	0	0	510	513	508	494	31	38	
3	1	1	0	0	511	511	508	494	30	38	
4	1	1	0	0	508	512	508	494	30	38	
5	1	1	0	0	511	513	509	494	30	38	
6	1	1	0	0	508	515	509	494	30	38	
7	1	1	0	0	508	515	509	493	30	38	
8	1	1	0	0	505	513	511	494	30	38	
9	1	1	0	0	506	511	511	494	30	38	
10	1	1	0	0	507	516	509	494	31	38	
11	1	1	0	0	509	513	507	494	30	38	
12	1	1	0	0	514	513	509	494	30	38	
13	1	1	0	0	518	513	510	492	30	38	
14	1	1	0	0	527	513	508	493	30	38	
15	1	1	0	0	516	513	508	493	30	38	
0	1	1	0	0	510	515	509	493	30	38	
1	1	1	0	0	505	515	508	494	30	38	
2	1	1	0	0	501	512	510	494	31	38	
3	1	1	0	0	495	513	508	494	30	38	
4	1	1	0	0	501	513	510	494	30	38	
5	1	1	0	0	504	512	509	493	30	38	
6	1	1	0	0	515	513	509	492	30	38	
7	1	1	0	0	527	513	509	492	30	38	
8	1	1	0	0	518	513	510	492	30	38	
9	1	1	0	0	509	515	509	492	30	38	
10	1	1	0	0	509	518	510	492	31	38	
11	1	1	0	0	506	516	510	492	30	38	
12	1	1	0	0	507	516	508	492	30	38	
13	1	1	0	0	509	518	506	492	30	38	
14	1	1	0	0	509	515	508	493	30	38	
15	1	1	0	0	510	513	508	492	30	38	
0	1	1	0	0	509	512	509	492	30	38	
1	1	1	0	0	508	512	508	493	30	38	
2	1	1	0	0	509	512	507	492	31	38	
3	1	1	0	0	512	510	511	493	30	38	
4	1	1	0	0	512	508	508	492	30	38	
5	1	1	0	0	510	497	504	492	30	38	
6	1	1	0	0	509	499	505	491	30	38	
7	1	1	0	0	510	505	508	492	30	38	
8	1	1	0	0	509	510	510	492	30	38	
9	1	1	0	0	507	515	508	492	30	38	
10	1	1	0	0	508	514	511	492	30	38	
11	1	1	0	0	511	515	513	493	30	38	
12	1	1	0	0	510	515	511	493	30	38	
13	1	1	0	0	510	518	511	492	30	38	
14	1	1	0	0	510	517	511	492	30	38	
15	1	1	0	0	513	521	509	492	30	38	
0	1	1	0	0	513	518	510	492	30	38	
1	1	1	0	0	511	517	509	492	30	38	
2	1	1	0	0	511	521	509	492	30	38	
3	1	1	0	0	513	523	508	492	30	38	
4	1	1	0	0	512	520	508	492	30	38	
5	1	1	0	0	508	519	510	492	30	38	
6	1	1	0	0	500	519	507	492	30	38	
7	1	1	0	0	504	516	509	492	30	38	
8	1	1	0	0	510	513	509	492	30	38	
9	1	1	0	0	510	511	511	492	30	38	
10	1	1	0	0	510	511	511	492	31	38	
11	1	1	0	0	504	511	511	492	30	38	
12	1	1	0	0	518	511	508	492	30	38	
13	1	1	0	0	513	513	510	492	30	38	
14	1	1	0	0	513	515	510	492	30	38	
15	1	1	0	0	508	504	509	492	30	38	
0	1	1	0	0	504	505	507	492	30	38	
1	1	1	0	0	519	507	509	492	30	38	
2	1	1	0	0	523	507	508	492	31	38	
3	1	1	0	0	514	515	511	493	30	38	
4	1	1	0	0	510	515	510	493	30	38	
5	1	1	0	0	504	515	506	493	30	38	
6	1	1	0	0	507	513	508	493	30	38	
7	1	1	0	0	509	508	510	492	30	38	
8	1	1	0	0	513	506	507	492	30	38	
9	1	1	0	0	512	508	508	492	30	38	
10	1	1	0	0	506	508	510	492	31	38	
11	1	1	0	0	508	513	510	492	30	38	
12	1	1	0	0	509	516	508	493	30	38	
13	1	1	0	0	508	516	508	494	30	38	
14	1	1	0	0	507	516	508	493	30	38	
15	1	1	0	0	504	517	506	492	30	38	
0	1	1	0	0	516	514	510	493	30	38	
1	1	1	0	0	516	515	510	493	30	38	
2	1	1	0	0	510	519	509	494	31	38	
3	1	1	0	0	507	520	509	493	30	38	
4	1	1	0	0	510	518	511	493	30	38	
5	1	1	0	0	514	517	508	494	30	38	
6	1	1	0	0	517	518	509	492	30	38	
7	1	1	0	0	511	518	509	492	30	38	
8	1	1	0	0	499	517	508	494	30	38	
9	1	1	0	0	500	515	508	494	30	38	
10	1	1	0	0	502	514	506	493	31	38	
11	1	1	0	0	504	515	510	494	30	38	
12	1	1	0	0	510	514	509	494	30	38	
13	1	1	0	0	516	515	511	494	30	38	
14	1	1	0	0	521	511	506	494	30	38	
15	1	1	0	0	513	512	508	492	30	38	
0	1	1	0	0	510	514	506	493	30	38	
1	1	1	0	0	505	512	506	494	30	38	
2	1	1	0	0	507	512	508	493	31	38	
3	1	1	0	0	508	508	510	493	30	38	
4	1	1	0	0	509	507	508	493	30	38	
5	1	1	0	0	509	510	510	493	30	38	
6	1	1	0	0	510	509	509	494	30	38	
7	1	1	0	0	510	513	511	493	30	38	
8	1	1	0	0	509	515	509	493	30	38	
9	1	1	0	0	508	518	510	493	30	38	
10	1	1	0	0	506	519	510	493	31	38	
11	1	1	0	0	511	517	509	493	30	38	
12	1	1	0	0	515	516	509	493	30	38	
13	1	1	0	0	513	516	508	492	30	38	
14	1	1	0	0	513	508	509	493	30	38	
15	1	1	0	0	518	510	507	492	30	38	
0	1	1	0	0	513	508	510	493	30	38	
1	1	1	0	0	508	510	507	493	30	38	
2	1	1	0	0	508	510	511	493	30	38	
3	1	1	0	0	500	513	508	494	30	38	
4	1	1	0	0	498	513	509	493	30	38	
5	1	1	0	0	508	515	509	494	30	38	
6	1	1	0	0	522	512	511	493	30	38	
7	1	1	0	0	517	514	508	492	30	38	
8	1	1	0	0	506	515	508	493	30	38	
9	1	1	0	0	507	514	509	493	30	38	
10	1	1	0	0	508	514	509	492	30	38	
11	1	1	0	0	510	513	509	492	30	38	
12	1	1	0	0	512	513	508	492	30	38	
13	1	1	0	0	512	515	507	492	30	38	
14	1	1	0	0	517	514	509	493	30	38	
15	1	1	0	0	513	514	508	492	30	38	
0	1	1	0	0	506	517	508	493	30	38	
1	1	1	0	0	500	515	510	493	30	38	
2	1	1	0	0	498	516	509	493	31	38	
3	1	1	0	0	509	516	512	493	30	38	
4	1	1	0	0	515	516	509	492	30	38	
5	1	1	0	0	526	513	508	493	30	38	
6	1	1	0	0	513	514	510	492	30	38	
7	1	1	0	0	506	517	510	492	30	38	
8	1	1	0	0	504	516	508	492	30	38	
9	1	1	0	0	505	517	507	493	30	38	
10	1	1	0	0	507	514	512	492	30	38	
11	1	1	0	0	502	503	512	493	30	38	
12	1	1	0	0	532	504	511	492	30	38	
13	1	1	0	0	519	505	510	493	30	38	
14	1	1	0	0	517	511	509	493	30	38	
15	1	1	0	0	524	511	508	492	30	38	
0	1	1	0	0	508	512	508	494	30	38	
1	1	1	0	0	505	514	508	492	30	38	
2	1	1	0	0	504	513	509	493	30	38	
3	1	1	0	0	509	513	508	493	30	38	
4	1	1	0	0	503	516	508	492	30	38	
5	1	1	0	0	495	519	511	493	30	38	
6	1	1	0	0	502	519	508	492	30	38	
7	1	1	0	0	521	516	510	492	30	38	
8	1	1	0	0	511	516	509	494	30	38	
9	1	1	0	0	510	515	507	493	30	38	
10	1	1	0	0	516	514	509	493	30	38	
11	1	1	0	0	533	514	509	493	30	38	
12	1	1	0	0	505	509	511	494	30	38	
13	1	1	0	0	500	509	509	494	30	38	
14	1	1	0	0	500	512	508	493	30	38	
15	1	1	0	0	503	513	512	492	30	38	
0	1	1	0	0	504	512	511	493	30	38	
1	1	1	0	0	506	514	509	493	30	38	
2	1	1	0	0	510	514	510	493	30	38	
3	1	1	0	0	512	515	509	494	30	38	
4	1	1	0	0	516	513	510	494	30	38	
5	1	1	0	0	507	515	511	494	30	38	
6	1	1	0	0	509	518	508	494	30	38	
7	1	1	0	0	513	516	507	494	30	38	
8	1	1	0	0	516	515	508	493	30	38	
9	1	1	0	0	514	517	507	493	30	38	
10	1	1	0	0	516	515	510	492	30	38	
11	1	1	0	0	512	515	510	494	30	38	
12	1	1	0	0	504	513	507	493	30	38	
13	1	1	0	0	494	512	508	492	30	38	
14	1	1	0	0	481	514	509	493	30	38	
15	1	1	0	0	483	513	508	492	30	38	
0	1	1	0	0	492	513	508	493	30	38	
1	1	1	0	0	540	507	510	493	30	38	
2	1	1	0	0	518	510	508	493	31	38	
3	1	1	0	0	512	512	509	494	30	38	
4	1	1	0	0	512	512	510	492	30	38	
5	1	1	0	0	543	512	509	492	30	38	
6	1	1	0	0	522	510	509	492	30	38	
7	1	1	0	0	531	511	508	492	30	38	
8	1	1	0	0	540	512	510	492	30	38	
9	1	1	0	0	533	518	510	492	30	38	
10	1	1	0	0	500	517	508	492	30	38	
11	1	1	0	0	484	515	508	493	30	38	
12	1	1	0	0	491	515	507	492	30	38	
13	1	1	0	0	499	516	507	492	30	38	
14	1	1	0	0	503	513	508	492	30	38	
15	1	1	0	0	506	512	510	492	30	38	
0	1	1	0	0	508	513	509	492	30	38	
1	1	1	0	0	506	513	509	492	30	38	
2	1	1	0	0	506	513	510	492	30	38	
3	1	1	0	0	508	513	508	493	30	38	
4	1	1	0	0	508	513	509	492	30	38	
5	1	1	0	0	510	514	509	492	30	38	
6	1	1	0	0	511	513	508	492	30	38	
7	1	1	0	0	510	513	506	493	30	38	
8	1	1	0	0	511	513	508	493	30	38	
9	1	1	0	0	508	511	509	493	30	38	
10	1	1	0	0	509	512	508	493	30	38	
11	1	1	0	0	511	514	508	494	30	38	
12	1	1	0	0	509	516	510	493	30	38	
13	1	1	0	0	510	519	510	493	30	38	
14	1	1	0	0	510	521	508	492	30	38	
15	1	1	0	0	510	516	511	492	30	38	
0	1	1	0	0	510	516	509	492	30	38	
1	1	1	0	0	509	517	509	493	30	38	
2	1	1	0	0	507	514	510	493	30	38	
3	1	1	0	0	510	511	509	493	30	38	
4	1	1	0	0	511	508	507	493	30	38	
5	1	1	0	0	510	506	510	493	30	38	
6	1	1	0	0	513	507	508	493	30	38	
7	1	1	0	0	510	508	508	493	30	38	
8	1	1	0	0	509	510	508	493	30	38	
9	1	1	0	0	506	511	509	493	30	38	
10	1	1	0	0	510	514	510	493	31	38	
11	1	1	0	0	508	515	507	493	30	38	
12	1	1	0	0	511	513	508	492	30	38	
13	1	1	0	0	511	514	509	492	30	38	
14	1	1	0	0	513	515	508	493	30	38	
15	1	1	0	0	510	513	509	492	30	38	
0	1	1	0	0	501	514	508	492	30	38	
1	1	1	0	0	493	514	508	492	30	38	
2	1	1	0	0	496	513	507	493	31	38	
3	1	1	0	0	502	514	509	493	30	38	
4	1	1	0	0	514	517	510	492	30	38	
5	1	1	0	0	541	513	513	492	30	38	
6	1	1	0	0	538	515	512	492	30	38	
7	1	1	0	0	518	515	509	491	30	38	
8	1	1	0	0	493	517	508	492	30	38	
9	1	1	0	0	507	515	511	491	30	38	
10	1	1	0	0	507	513	508	491	31	38	
11	1	1	0	0	509	518	507	492	30	38	
12	1	1	0	0	526	516	513	492	30	38	
13	1	1	0	0	518	515	512	492	30	38	
14	1	1	0	0	502	513	511	492	30	38	
15	1	1	0	0	499	512	508	492	30	38	
0	1	1	0	0	503	511	510	492	30	38	
1	1	1	0	0	504	506	510	492	30	38	
2	1	1	0	0	505	510	509	492	31	38	
3	1	1	0	0	517	512	509	492	30	38	
4	1	1	0	0	522	515	510	491	30	38	
5	1	1	0	0	511	518	510	491	30	38	
6	1	1	0	0	508	520	508	491	30	38	
7	1	1	0	0	509	519	510	491	30	38	
8	1	1	0	0	512	516	511	491	30	38	
9	1	1	0	0	509	512	507	491	30	38	
10	1	1	0	0	511	508	508	492	30	38	
11	1	1	0	0	509	512	509	491	30	38	
12	1	1	0	0	508	512	510	492	30	38	
13	1	1	0	0	507	513	508	491	30	38	
14	1	1	0	0	508	507	508	491	30	38	
15	1	1	0	0	511	505	508	490	30	38	
0	1	1	0	0	511	510	510	491	30	38	
1	1	1	0	0	509	506	507	491	30	38	
2	1	1	0	0	506	508	508	490	30	38	
3	1	1	0	0	508	509	508	491	30	38	
4	1	1	0	0	507	512	509	490	30	38	
5	1	1	0	0	505	513	509	490	30	38	
6	1	1	0	0	508	512	510	491	30	38	
7	1	1	0	0	507	515	511	491	30	38	
8	1	1	0	0	508	515	511	491	30	38	
9	1	1	0	0	511	514	511	492	30	38	
10	1	1	0	0	514	517	511	491	31	38	
11	1	1	0	0	511	520	509	492	30	38	
12	1	1	0	0	521	521	510	491	30	38	
13	1	1	0	0	522	519	509	491	30	38	
14	1	1	0	0	506	518	509	490	30	38	
15	1	1	0	0	503	519	509	491	30	38	
0	1	1	0	0	498	518	510	491	30	38	
1	1	1	0	0	518	512	507	492	30	38	
2	1	1	0	0	516	511	508	492	31	38	
3	1	1	0	0	511	507	508	492	30	38	
4	1	1	0	0	507	507	507	492	30	38	
5	1	1	0	0	503	510	508	492	30	38	
6	1	1	0	0	500	510	510	492	30	38	
7	1	1	0	0	513	511	511	491	30	38	
8	1	1	0	0	518	513	509	492	30	38	
9	1	1	0	0	507	515	510	491	30	38	
10	1	1	0	0	507	514	511	491	31	38	
11	1	1	0	0	506	514	511	492	30	38	
12	1	1	0	0	506	518	508	492	30	38	
13	1	1	0	0	506	516	509	492	30	38	
14	1	1	0	0	512	516	511	492	30	38	
15	1	1	0	0	518	515	507	492	30	38	
0	1	1	0	0	512	516	509	491	30	38	
1	1	1	0	0	519	515	511	492	30	38	
2	1	1	0	0	519	513	509	492	31	38	
3	1	1	0	0	511	514	508	492	30	38	
4	1	1	0	0	509	514	509	492	30	38	
5	1	1	0	0	508	512	508	492	30	38	
6	1	1	0	0	508	514	507	492	30	38	
7	1	1	0	0	506	512	511	492	30	38	
8	1	1	0	0	507	508	509	492	30	38	
9	1	1	0	0	513	508	507	493	30	38	
10	1	1	0	0	513	511	510	493	30	38	
11	1	1	0	0	514	512	511	493	30	38	
12	1	1	0	0	510	512	508	493	30	38	
13	1	1	0	0	505	512	508	492	30	38	
14	1	1	0	0	502	513	508	493	30	38	
15	1	1	0	0	497	512	512	492	30	38	
0	1	1	0	0	487	507	512	492	30	38	
1	1	1	0	0	492	511	509	492	30	38	
2	1	1	0	0	505	515	508	492	31	38	
3	1	1	0	0	518	518	510	493	30	38	
4	1	1	0	0	525	516	514	493	30	38	
5	1	1	0	0	522	515	509	492	30	38	
6	1	1	0	0	533	516	508	493	30	38	
7	1	1	0	0	527	518	507	493	30	38	
8	1	1	0	0	509	515	508	493	30	38	
9	1	1	0	0	512	515	507	493	30	38	
10	1	1	0	0	508	514	509	493	31	38	
11	1	1	0	0	509	512	510	494	30	38	
12	1	1	0	0	509	511	512	493	30	38	
13	1	1	0	0	508	512	511	492	30	38	
14	1	1	0	0	507	515	508	493	30	38	
15	1	1	0	0	503	513	508	492	30	38	
0	1	1	0	0	501	515	506	494	30	38	
1	1	1	0	0	509	512	508	494	30	38	
2	1	1	0	0	516	515	508	494	31	38	
3	1	1	0	0	507	516	508	494	30	38	
4	1	1	0	0	507	518	510	494	30	38	
5	1	1	0	0	514	518	510	494	30	38	
6	1	1	0	0	512	515	510	494	30	38	
7	1	1	0	0	511	518	507	493	30	38	
8	1	1	0	0	510	507	507	494	30	38	
9	1	1	0	0	509	507	504	493	30	38	
10	1	1	0	0	506	512	509	494	31	38	
11	1	1	0	0	498	516	511	494	30	38	
12	1	1	0	0	504	515	508	495	30	38	
13	1	1	0	0	509	514	508	494	30	38	
14	1	1	0	0	512	512	508	494	30	38	
15	1	1	0	0	512	512	510	494	30	38	
0	1	1	0	0	511	510	511	494	30	38	
1	1	1	0	0	508	512	508	494	30	38	
2	1	1	0	0	509	515	508	494	31	38	
3	1	1	0	0	509	513	508	494	30	38	
4	1	1	0	0	508	515	509	494	30	38	
5	1	1	0	0	511	515	510	494	30	38	
6	1	1	0	0	509	514	509	494	30	38	
7	1	1	0	0	512	511	510	494	30	38	
8	1	1	0	0	513	510	508	494	30	38	
9	1	1	0	0	510	510	508	494	30	38	
10	1	1	0	0	509	512	510	494	31	38	
11	1	1	0	0	507	513	508	495	30	38	
12	1	1	0	0	508	515	510	494	30	38	
13	1	1	0	0	512	514	507	494	30	38	
14	1	1	0	0	518	514	508	494	30	38	
15	1	1	0	0	516	515	508	493	30	38	
0	1	1	0	0	510	514	507	493	30	38	
1	1	1	0	0	510	513	509	492	30	38	
2	1	1	0	0	511	515	511	494	30	38	
3	1	1	0	0	511	514	508	493	30	38	
4	1	1	0	0	510	513	510	494	30	38	
5	1	1	0	0	512	513	508	494	30	38	
6	1	1	0	0	511	514	509	494	30	38	
7	1	1	0	0	510	513	507	493	30	38	
8	1	1	0	0	510	511	509	494	30	38	
9	1	1	0	0	508	513	508	493	30	38	
10	1	1	0	0	506	514	509	494	31	38	
11	1	1	0	0	510	513	511	493	30	38	
12	1	1	0	0	508	513	510	492	30	38	
13	1	1	0	0	509	515	512	492	30	38	
14	1	1	0	0	511	514	511	493	30	38	
15	1	1	0	0	511	516	509	493	30	38	
0	1	1	0	0	505	517	509	493	30	38	
1	1	1	0	0	504	514	511	493	30	38	
2	1	1	0	0	504	517	511	493	31	38	
3	1	1	0	0	508	515	512	493	30	38	
4	1	1	0	0	512	515	507	493	30	38	
5	1	1	0	0	513	505	508	493	30	38	
6	1	1	0	0	514	508	506	493	30	38	
7	1	1	0	0	530	512	510	493	30	38	
8	1	1	0	0	521	511	507	492	30	38	
9	1	1	0	0	512	510	509	492	30	38	
10	1	1	0	0	505	514	507	493	31	38	
11	1	1	0	0	510	513	509	493	30	38	
12	1	1	0	0	510	511	509	493	30	38	
13	1	1	0	0	497	513	509	492	30	38	
14	1	1	0	0	499	509	509	493	30	38	
15	1	1	0	0	511	510	510	492	30	38	
0	1	1	0	0	512	511	508	494	30	38	
1	1	1	0	0	506	514	509	492	30	38	
2	1	1	0	0	499	516	507	493	31	38	
3	1	1	0	0	503	514	508	493	30	38	
4	1	1	0	0	499	515	508	492	30	38	
5	1	1	0	0	499	517	511	492	30	38	
6	1	1	0	0	505	516	509	492	30	38	
7	1	1	0	0	508	515	509	493	30	38	
8	1	1	0	0	541	514	510	494	30	38	
9	1	1	0	0	542	515	509	493	30	38	
10	1	1	0	0	524	515	509	494	31	38	
11	1	1	0	0	511	512	511	494	30	38	
12	1	1	0	0	505	515	511	494	30	38	
13	1	1	0	0	500	516	510	494	30	38	
14	1	1	0	0	502	515	509	493	30	38	
15	1	1	0	0	503	513	508	493	30	38	
0	1	1	0	0	501	515	509	493	30	38	
1	1	1	0	0	497	518	507	493	30	38	
2	1	1	0	0	506	519	508	493	30	38	
3	1	1	0	0	537	505	508	494	30	38	
4	1	1	0	0	532	503	507	494	30	38	
5	1	1	0	0	518	511	507	493	30	38	
6	1	1	0	0	505	511	511	494	30	38	
7	1	1	0	0	505	513	508	493	30	38	
8	1	1	0	0	506	513	508	494	30	38	
9	1	1	0	0	502	509	510	494	30	38	
10	1	1	0	0	508	510	508	494	31	38	
11	1	1	0	0	513	510	507	494	30	38	
12	1	1	0	0	511	514	509	493	30	38	
13	1	1	0	0	508	517	509	493	30	38	
14	1	1	0	0	504	518	508	493	30	38	
15	1	1	0	0	501	518	510	493	30	38	
0	1	1	0	0	500	518	509	494	30	38	
1	1	1	0	0	504	514	509	494	30	38	
2	1	1	0	0	511	514	509	494	31	38	
3	1	1	0	0	515	511	508	495	30	38	
4	1	1	0	0	519	513	509	494	30	38	
5	1	1	0	0	508	517	510	494	30	38	
6	1	1	0	0	508	515	510	493	30	38	
7	1	1	0	0	508	508	509	493	30	38	
8	1	1	0	0	509	509	511	494	30	38	
9	1	1	0	0	509	511	511	493	30	38	
10	1	1	0	0	512	510	510	493	30	38	
11	1	1	0	0	512	512	510	493	30	38	
12	1	1	0	0	514	515	507	494	30	38	
13	1	1	0	0	512	515	509	494	30	38	
14	1	1	0	0	509	513	507	494	30	38	
15	1	1	0	0	509	511	506	493	30	38	
0	1	1	0	0	510	513	507	494	30	38	
1	1	1	0	0	509	513	509	494	30	38	
2	1	1	0	0	511	512	511	494	30	38	
3	1	1	0	0	509	513	510	495	30	38	
4	1	1	0	0	507	513	511	494	30	38	
5	1	1	0	0	508	514	510	494	30	38	
6	1	1	0	0	515	516	512	494	30	38	
7	1	1	0	0	513	512	511	494	30	38	
8	1	1	0	0	510	512	509	494	30	38	
9	1	1	0	0	507	512	510	495	30	38	
10	1	1	0	0	509	512	511	495	30	38	
11	1	1	0	0	510	513	511	494	30	38	
12	1	1	0	0	509	511	508	495	30	38	
13	1	1	0	0	510	518	506	495	30	38	
14	1	1	0	0	509	515	507	494	30	38	
15	1	1	0	0	511	508	508	494	30	38	
0	1	1	0	0	506	514	509	495	30	38	
1	1	1	0	0	504	515	510	494	30	38	
2	1	1	0	0	503	513	510	494	30	38	
3	1	1	0	0	510	515	508	494	30	38	
4	1	1	0	0	514	519	508	494	30	38	
5	1	1	0	0	511	515	509	494	30	38	
6	1	1	0	0	518	515	511	494	30	38	
7	1	1	0	0	522	518	508	494	30	38	
8	1	1	0	0	510	516	508	494	30	38	
9	1	1	0	0	502	514	508	494	30	38	
10	1	1	0	0	502	515	510	493	30	38	
11	1	1	0	0	507	517	510	494	30	38	
12	1	1	0	0	504	512	508	493	30	38	
13	1	1	0	0	503	509	510	492	30	38	
14	1	1	0	0	513	512	507	492	29	38	
15	1	1	0	0	529	512	508	492	30	38	
0	1	1	0	0	515	511	508	493	30	38	
1	1	1	0	0	510	510	509	493	30	38	
2	1	1	0	0	509	508	510	493	30	38	
3	1	1	0	0	508	511	510	494	30	38	
4	1	1	0	0	505	515	509	492	30	38	
5	1	1	0	0	513	514	508	493	30	38	
6	1	1	0	0	520	519	508	492	29	38	
7	1	1	0	0	511	516	509	492	30	38	
8	1	1	0	0	511	516	510	492	30	38	
9	1	1	0	0	509	519	508	492	30	38	
10	1	1	0	0	510	517	507	492	30	38	
11	1	1	0	0	508	508	508	492	30	38	
12	1	1	0	0	507	505	509	491	30	38	
13	1	1	0	0	505	507	508	492	30	38	
14	1	1	0	0	509	510	511	491	29	38	
15	1	1	0	0	506	512	507	491	30	38	
0	1	1	0	0	508	519	507	492	30	38	
1	1	1	0	0	509	520	508	491	30	38	
2	1	1	0	0	507	511	509	491	30	38	
3	1	1	0	0	502	516	508	491	30	38	
4	1	1	0	0	499	519	510	491	30	38	
5	1	1	0	0	499	518	510	490	30	38	
6	1	1	0	0	524	505	510	490	29	38	
7	1	1	0	0	517	496	508	489	30	38	
8	1	1	0	0	522	508	509	490	30	38	
9	1	1	0	0	520	510	511	489	30	38	
10	1	1	0	0	516	512	507	489	30	38	
11	1	1	0	0	515	516	510	490	30	38	
12	1	1	0	0	508	516	509	489	30	38	
13	1	1	0	0	501	518	513	488	29	38	
14	1	1	0	0	504	520	509	488	29	38	
15	1	1	0	0	511	516	511	487	30	38	
0	1	1	0	0	515	516	509	487	30	38	
1	1	1	0	0	526	513	508	486	30	38	
2	1	1	0	0	503	513	508	486	30	38	
3	1	1	0	0	502	511	508	487	29	38	
4	1	1	0	0	505	507	508	487	29	38	
5	1	1	0	0	509	509	508	487	30	38	
6	1	1	0	0	508	508	508	486	29	38	
7	1	1	0	0	506	511	510	486	30	38	
8	1	1	0	0	508	514	507	487	30	38	
9	1	1	0	0	507	517	509	486	30	38	
10	1	1	0	0	508	516	510	486	30	38	
11	1	1	0	0	511	515	510	486	30	38	
12	1	1	0	0	511	516	511	485	30	38	
13	1	1	0	0	512	519	508	484	30	38	
14	1	1	0	0	511	519	510	484	29	38	
15	1	1	0	0	513	516	511	484	30	38	
0	1	1	0	0	511	518	509	485	30	38	
1	1	1	0	0	513	514	510	484	30	38	
2	1	1	0	0	513	516	509	484	30	38	
3	1	1	0	0	511	514	508	485	30	39	
4	1	1	0	0	509	513	509	484	30	39	
5	1	1	0	0	508	512	508	484	30	39	
6	1	1	0	0	508	513	510	483	29	39	
7	1	1	0	0	504	512	510	482	30	39	
8	1	1	0	0	504	512	509	483	30	39	
9	1	1	0	0	508	511	510	482	30	39	
10	1	1	0	0	510	513	507	482	30	39	
11	1	1	0	0	507	513	509	482	30	39	
12	1	1	0	0	509	513	508	482	30	39	
13	1	1	0	0	516	513	510	482	30	39	
14	1	1	0	0	513	515	508	481	29	39	
15	1	1	0	0	514	514	509	481	30	39	
0	1	1	0	0	513	517	506	481	30	39	
1	1	1	0	0	509	513	508	480	30	39	
2	1	1	0	0	507	515	510	480	30	39	
3	1	1	0	0	507	513	509	481	30	39	
4	1	1	0	0	508	516	508	481	30	39	
5	1	1	0	0	511	514	508	480	30	39	
6	1	1	0	0	513	511	509	480	29	39	
7	1	1	0	0	508	510	509	479	30	39	
8	1	1	0	0	510	510	511	481	30	39	
9	1	1	0	0	510	513	508	481	30	39	
10	1	1	0	0	511	513	508	480	30	39	
11	1	1	0	0	512	513	508	481	30	39	
12	1	1	0	0	512	513	510	480	30	39	
13	1	1	0	0	506	515	510	480	30	39	
14	1	1	0	0	510	513	507	481	30	39	
15	1	1	0	0	510	512	510	480	30	39	
0	1	1	0	0	507	511	512	479	30	39	
1	1	1	0	0	508	513	512	480	30	39	
2	1	1	0	0	510	515	511	480	30	39	
3	1	1	0	0	519	515	509	481	30	39	
4	1	1	0	0	513	514	508	480	30	39	
5	1	1	0	0	506	515	508	481	30	38	
6	1	1	0	0	508	512	511	481	30	38	
7	1	1	0	0	509	515	514	481	30	39	
8	1	1	0	0	512	515	513	481	30	39	
9	1	1	0	0	517	518	507	481	30	39	
10	1	1	0	0	512	514	500	481	30	39	
11	1	1	0	0	509	512	503	481	30	39	
12	1	1	0	0	508	511	507	481	30	39	
13	1	1	0	0	510	513	508	481	30	39	
14	1	1	0	0	512	510	509	481	29	39	
15	1	1	0	0	510	508	510	480	30	39	
0	1	1	0	0	507	508	510	481	30	39	
1	1	1	0	0	510	511	510	481	30	39	
2	1	1	0	0	508	513	508	481	30	39	
3	1	1	0	0	510	513	511	481	30	39	
4	1	1	0	0	511	514	509	481	30	39	
5	1	1	0	0	513	515	510	481	30	39	
6	1	1	0	0	507	512	513	480	30	39	
7	1	1	0	0	504	516	514	480	30	39	
8	1	1	0	0	508	515	511	480	30	39	
9	1	1	0	0	512	515	512	480	30	39	
10	1	1	0	0	506	515	511	480	30	39	
11	1	1	0	0	505	513	510	480	30	39	
12	1	1	0	0	508	514	514	480	30	39	
13	1	1	0	0	510	516	503	480	30	38	
14	1	1	0	0	523	519	506	480	30	38	
15	1	1	0	0	518	513	512	479	30	38	
0	1	1	0	0	504	508	515	480	30	39	
1	1	1	0	0	506	510	515	481	30	39	
2	1	1	0	0	515	511	517	480	30	39	
3	1	1	0	0	519	512	516	480	30	39	
4	1	1	0	0	515	506	524	480	30	39	
5	1	1	0	0	508	503	547	479	30	39	
6	1	1	0	0	510	506	550	479	30	39	
7	1	1	0	0	511	516	528	478	30	39	
8	1	1	0	0	510	536	475	480	30	39	
9	1	1	0	0	509	538	448	480	30	39	
10	1	1	0	0	507	540	427	479	30	39	
11	1	1	0	0	508	513	468	480	30	39	
12	1	1	0	0	504	500	483	480	30	39	
13	1	1	0	0	503	500	497	480	30	39	
14	1	1	0	0	499	491	540	480	30	39	
15	1	1	0	0	492	487	563	478	30	39	
0	1	1	0	0	515	503	558	479	30	39	
1	1	1	0	0	515	508	538	478	30	39	
2	1	1	0	0	513	516	521	478	30	39	
3	1	1	0	0	524	532	513	478	30	39	
4	1	1	0	0	510	527	513	478	30	39	
5	1	1	0	0	503	523	475	478	30	39	
6	1	1	0	0	502	529	454	477	30	39	
7	1	1	0	0	493	510	488	476	30	39	
8	1	1	0	0	511	495	526	476	30	39	
9	1	1	0	0	541	495	539	477	30	39	
10	1	1	0	0	530	499	529	477	31	39	
11	1	1	0	0	518	515	503	477	30	39	
12	1	1	0	0	518	525	494	476	30	39	
13	1	1	0	0	518	525	494	475	30	39	
14	1	1	0	0	508	522	493	475	30	39	
15	1	1	0	0	497	512	503	475	30	39	
0	1	1	0	0	479	515	467	475	30	39	
1	1	1	0	0	490	525	451	475	30	39	
2	1	1	0	0	504	506	499	475	31	38	
3	1	1	0	0	497	491	530	475	30	38	
4	1	1	0	0	497	491	563	476	30	38	
5	1	1	0	0	496	497	564	476	30	38	
6	1	1	0	0	519	511	537	476	30	38	
7	1	1	0	0	524	528	487	476	30	38	
8	1	1	0	0	536	538	466	476	30	38	
9	1	1	0	0	538	528	483	476	30	38	
10	1	1	0	0	524	526	505	476	30	38	
11	1	1	0	0	505	509	535	477	30	38	
12	1	1	0	0	496	506	536	477	30	38	
13	1	1	0	0	500	505	523	477	30	38	
14	1	1	0	0	508	510	520	478	30	38	
15	1	1	0	0	511	516	537	477	30	38	
0	1	1	0	0	519	510	551	478	30	38	
1	1	1	0	0	518	514	524	478	30	38	
2	1	1	0	0	519	536	483	479	30	38	
3	1	1	0	0	515	536	452	479	30	38	
4	1	1	0	0	504	527	465	479	30	38	
5	1	1	0	0	499	514	490	479	30	38	
6	1	1	0	0	523	504	507	479	30	38	
7	1	1	0	0	503	502	493	479	30	38	
8	1	1	0	0	491	499	499	479	30	38	
9	1	1	0	0	500	495	519	480	30	38	
10	1	1	0	0	492	490	537	480	30	38	
11	1	1	0	0	504	500	533	481	30	38	
12	1	1	0	0	543	522	530	481	30	38	
13	1	1	0	0	541	518	524	482	30	37	
14	1	1	0	0	520	524	515	482	30	38	
15	1	1	0	0	508	522	520	483	30	38	
0	1	1	0	0	487	503	531	483	30	38	
1	1	1	0	0	470	501	536	484	30	38	
2	1	1	0	0	521	523	533	484	31	38	
3	1	1	0	0	530	526	520	484	30	38	
4	1	1	0	0	513	527	498	486	30	38	
5	1	1	0	0	518	526	491	486	30	38	
6	1	1	0	0	512	528	473	486	30	38	
7	1	1	0	0	487	513	486	486	31	38	
8	1	1	0	0	494	507	519	487	31	38	
9	1	1	0	0	515	502	541	487	31	38	
10	1	1	0	0	539	500	541	487	31	38	
11	1	1	0	0	522	518	499	488	31	38	
12	1	1	0	0	526	537	471	487	31	38	
13	1	1	0	0	505	520	495	487	31	38	
14	1	1	0	0	513	498	553	487	31	38	
15	1	1	0	0	499	494	564	485	31	38	
0	1	1	0	0	484	512	517	487	31	38	
1	1	1	0	0	522	556	440	487	31	38	
2	1	1	0	0	513	551	427	487	32	38	
3	1	1	0	0	492	527	428	488	32	38	
4	1	1	0	0	487	511	463	488	32	37	
5	1	1	0	0	487	483	527	488	32	37	
6	1	1	0	0	496	474	575	489	31	38	
7	1	1	0	0	487	472	603	488	32	38	
8	1	1	0	0	511	494	596	489	32	38	
9	1	1	0	0	527	520	574	490	32	38	
10	1	1	0	0	494	549	462	490	32	38	
11	1	1	0	0	507	560	397	491	32	38	
12	1	1	0	0	523	531	414	491	32	38	
13	1	1	0	0	532	529	422	491	32	38	
14	1	1	0	0	527	493	516	491	31	38	
15	1	1	0	0	499	488	547	492	32	38	
0	1	1	0	0	510	490	547	493	32	38	
1	1	1	0	0	529	499	523	493	32	38	
2	1	1	0	0	531	496	529	494	32	38	
3	1	1	0	0	509	510	504	495	32	38	
4	1	1	0	0	523	516	496	494	32	38	
5	1	1	0	0	519	504	537	494	31	38	
6	1	1	0	0	521	513	515	494	31	38	
7	1	1	0	0	518	523	497	493	31	38	
8	1	1	0	0	519	527	480	494	31	38	
9	1	1	0	0	518	518	490	494	31	38	
10	1	1	0	0	520	518	484	495	32	38	
11	1	1	0	0	515	505	530	495	31	38	
12	1	1	0	0	507	498	548	495	31	38	
13	1	1	0	0	512	504	551	495	31	38	
14	1	1	0	0	514	510	544	495	31	38	
15	1	1	0	0	519	512	547	495	31	38	
0	1	1	0	0	538	532	496	496	31	38	
1	1	1	0	0	536	543	451	496	31	38	
2	1	1	0	0	528	548	422	495	31	38	
3	1	1	0	0	530	524	472	496	31	38	
4	1	1	0	0	515	497	520	496	31	38	
5	1	1	0	0	518	502	533	496	31	38	
6	1	1	0	0	527	499	545	495	31	38	
7	1	1	0	0	506	501	530	495	31	38	
8	1	1	0	0	512	526	477	497	31	38	
9	1	1	0	0	510	536	467	497	31	38	
10	1	1	0	0	509	512	500	496	31	38	
11	1	1	0	0	482	491	530	497	31	38	
12	1	1	0	0	516	502	536	497	31	38	
13	1	1	0	0	529	511	539	497	31	38	
14	1	1	0	0	532	513	525	497	30	38	
15	1	1	0	0	536	508	552	497	31	38	
0	1	1	0	0	526	514	534	498	31	38	
1	1	1	0	0	521	523	511	497	31	38	
2	1	1	0	0	522	523	512	498	31	38	
3	1	1	0	0	527	520	519	498	30	38	
4	1	1	0	0	521	520	517	497	30	37	
5	1	1	0	0	515	519	506	498	30	37	
6	1	1	0	0	510	532	452	499	30	37	
7	1	1	0	0	507	532	452	499	30	37	
8	1	1	0	0	502	508	503	500	30	37	
9	1	1	0	0	495	493	539	500	30	37	
10	1	1	0	0	497	504	515	500	30	37	
11	1	1	0	0	496	508	524	501	30	37	
12	1	1	0	0	496	494	560	500	30	37	
13	1	1	0	0	496	504	558	501	30	37	
14	1	1	0	0	489	511	540	501	30	37	
15	1	1	0	0	487	527	499	501	30	37	
0	1	1	0	0	484	525	500	501	30	37	
1	1	1	0	0	475	518	492	501	30	37	
2	1	1	0	0	475	527	438	501	30	37	
3	1	1	0	0	474	535	419	501	30	37	
4	1	1	0	0	472	503	494	501	30	37	
5	1	1	0	0	470	479	569	501	30	37	
6	1	1	0	0	467	484	575	501	29	37	
7	1	1	0	0	470	523	463	501	29	37	
8	1	1	0	0	474	547	403	501	29	37	
9	1	1	0	0	467	515	457	501	29	37	
10	1	1	0	0	461	495	511	500	30	38	
11	1	1	0	0	463	495	522	500	29	38	
12	1	1	0	0	470	503	526	500	29	38	
13	1	1	0	0	476	511	524	499	29	38	
14	1	1	0	0	479	510	526	499	29	38	
15	1	1	0	0	482	511	523	498	29	38	
0	1	1	0	0	485	510	521	498	29	38	
1	1	1	0	0	484	510	520	498	29	38	
2	1	1	0	0	491	510	521	497	29	38	
3	1	1	0	0	494	514	519	497	29	38	
4	1	1	0	0	497	514	519	496	29	38	
5	1	1	0	0	497	512	526	495	29	38	
6	1	1	0	0	501	512	526	494	28	38	
7	1	1	0	0	501	520	510	492	29	38	
8	1	1	0	0	502	522	504	492	28	38	
9	1	1	0	0	499	520	497	491	28	38	
10	1	1	0	0	501	518	508	490	29	38	
11	1	1	0	0	502	513	509	489	28	38	
12	1	1	0	0	504	519	504	488	28	38	
13	1	1	0	0	507	516	504	488	28	38	
14	1	1	0	0	507	513	512	486	28	38	
15	1	1	0	0	508	513	511	484	28	38	
0	1	1	0	0	505	514	511	484	28	38	
1	1	1	0	0	510	513	512	483	28	38	
2	1	1	0	0	510	513	510	483	28	38	
3	1	1	0	0	514	509	508	482	28	38	
4	1	1	0	0	520	508	508	480	28	39	
5	1	1	0	0	525	513	508	480	28	39	
6	1	1	0	0	525	513	508	478	27	39	
7	1	1	0	0	527	512	512	476	28	39	
8	1	1	0	0	527	514	508	476	27	39	
9	1	1	0	0	528	520	507	476	27	39	
10	1	1	0	0	527	524	508	475	28	39	
11	1	1	0	0	526	525	508	474	27	39	
12	1	1	0	0	524	522	510	473	27	39	
13	1	1	0	0	531	519	511	472	27	39	
14	1	1	0	0	543	512	508	472	27	39	
15	1	1	0	0	536	494	501	470	27	39	
0	1	1	0	0	519	496	500	470	27	39	
1	1	1	0	0	520	494	509	468	27	39	
2	1	1	0	0	520	498	508	467	27	39	
3	1	1	0	0	511	509	511	466	26	39	
4	1	1	0	0	523	523	509	465	26	39	
5	1	1	0	0	519	533	512	464	26	39	
6	1	1	0	0	515	541	511	463	26	39	
7	1	1	0	0	516	543	514	462	26	39	
8	1	1	0	0	517	535	512	461	26	39	
9	1	1	0	0	520	519	510	460	26	39	
10	1	1	0	0	512	504	508	460	26	39	
11	1	1	0	0	529	504	507	460	25	39	
12	1	1	0	0	555	499	512	459	25	39	
13	1	1	0	0	558	504	511	458	25	39	
14	1	1	0	0	560	489	503	458	25	39	
15	1	1	0	0	543	456	502	456	25	39	
0	1	1	0	0	558	463	499	457	25	39	
1	1	1	0	0	541	478	502	457	24	39	
2	1	1	0	0	523	483	504	457	25	39	
3	1	1	0	0	540	476	503	458	24	39	
4	1	1	0	0	540	485	499	457	24	39	
5	1	1	0	0	527	509	501	459	24	39	
6	1	1	0	0	503	518	506	459	24	40	
7	1	1	0	0	487	543	512	459	24	40	
8	1	1	0	0	490	561	522	460	24	40	
9	1	1	0	0	519	566	515	461	24	40	
10	1	1	0	0	526	553	512	463	25	40	
11	1	1	0	0	535	532	512	464	24	40	
12	1	1	0	0	531	522	511	465	24	40	
13	1	1	0	0	538	513	506	467	24	40	
14	1	1	0	0	541	506	510	468	24	40	
15	1	1	0	0	523	487	507	470	24	40	
0	1	1	0	0	515	486	505	472	25	40	
1	1	1	0	0	509	504	503	474	25	40	
2	1	1	0	0	500	536	504	477	25	41	
3	1	1	0	0	491	560	513	478	25	41	
4	1	1	0	0	465	547	522	480	25	41	
5	1	1	0	0	466	519	517	482	25	41	
6	1	1	0	0	474	513	512	484	24	41	
7	1	1	0	0	468	500	516	486	25	41	
8	1	1	0	0	457	487	505	487	25	41	
9	1	1	0	0	450	505	487	490	25	41	
10	1	1	0	0	476	528	495	492	25	41	
11	1	1	0	0	505	518	506	494	25	41	
12	1	1	0	0	512	508	507	495	25	41	
13	1	1	0	0	495	521	512	496	25	41	
14	1	1	0	0	473	529	511	498	25	42	
15	1	1	0	0	480	531	507	498	26	42	
0	1	1	0	0	502	533	508	501	26	42	
1	1	1	0	0	504	533	511	502	26	42	
2	1	1	0	0	496	531	513	503	27	42	
3	1	1	0	0	480	527	514	504	27	41	
4	1	1	0	0	473	529	509	505	27	41	
5	1	1	0	0	515	527	510	507	27	41	
6	1	1	0	0	510	525	510	508	27	41	
7	1	1	0	0	508	532	509	508	28	41	
8	1	1	0	0	528	546	513	510	28	41	
9	1	1	0	0	563	551	513	512	28	41	
10	1	1	0	0	563	552	517	513	29	41	
11	1	1	0	0	508	546	516	514	29	41	
12	1	1	0	0	506	532	511	515	29	41	
13	1	1	0	0	530	521	508	516	29	40	
14	1	1	0	0	527	494	508	517	29	40	
15	1	1	0	0	526	463	501	516	30	40	
0	1	1	0	0	513	459	501	518	30	40	
1	1	1	0	0	494	486	503	519	30	40	
2	1	1	0	0	491	511	508	520	31	40	
3	1	1	0	0	510	515	512	521	31	40	
4	1	1	0	0	514	520	510	522	31	39	
5	1	1	0	0	502	527	510	524	32	39	
6	1	1	0	0	510	529	514	524	32	39	
7	1	1	0	0	485	537	514	524	32	39	
8	1	1	0	0	519	540	515	526	32	39	
9	1	1	0	0	533	533	512	526	33	38	
10	1	1	0	0	519	526	512	527	33	38	
11	1	1	0	0	530	527	509	528	33	38	
12	1	1	0	0	531	525	508	529	33	38	
13	1	1	0	0	537	524	505	531	34	38	
14	1	1	0	0	527	526	508	531	34	38	
15	1	1	0	0	524	510	507	533	34	37	
0	1	1	0	0	515	506	508	535	34	37	
1	1	1	0	0	523	500	510	536	35	37	
2	1	1	0	0	524	488	510	536	35	37	
3	1	1	0	0	521	487	510	538	35	37	
4	1	1	0	0	520	494	508	538	35	36	
5	1	1	0	0	517	502	508	539	35	36	
6	1	1	0	0	507	496	508	540	35	36	
7	1	1	0	0	503	500	510	541	35	36	
8	1	1	0	0	499	499	509	543	35	36	
9	1	1	0	0	499	496	511	544	35	36	
10	1	1	0	0	523	500	511	546	35	35	
11	1	1	0	0	553	496	512	547	35	35	
12	1	1	0	0	529	499	510	548	35	35	
13	1	1	0	0	507	499	509	549	35	35	
14	1	1	0	0	517	497	512	550	35	35	
15	1	1	0	0	515	502	510	549	35	35	
0	1	1	0	0	510	502	508	550	35	35	
1	1	1	0	0	508	503	505	549	34	34	
2	1	1	0	0	511	503	507	549	34	34	
3	1	1	0	0	508	498	513	549	34	34	
4	1	1	0	0	508	496	514	548	34	34	
5	1	1	0	0	509	493	514	547	33	34	
6	1	1	0	0	508	497	512	547	33	33	
7	1	1	0	0	507	495	509	545	33	33	
8	1	1	0	0	508	496	507	545	32	33	
9	1	1	0	0	503	498	504	543	32	33	
10	1	1	0	0	497	492	505	542	32	33	
11	1	1	0	0	497	490	506	541	31	33	
12	1	1	0	0	496	505	511	538	31	33	
13	1	1	0	0	491	508	511	537	31	33	
14	1	1	0	0	491	508	512	536	30	33	
15	1	1	0	0	504	507	512	534	30	33	
0	1	1	0	0	518	503	512	534	30	33	
1	1	1	0	0	501	497	511	532	29	33	
2	1	1	0	0	486	491	511	531	29	33	
3	1	1	0	0	505	493	512	530	29	33	
4	1	1	0	0	509	498	512	529	29	33	
5	1	1	0	0	499	500	508	527	28	33	
6	1	1	0	0	497	495	506	525	28	33	
7	1	1	0	0	506	498	507	524	28	33	
8	1	1	0	0	502	509	505	522	28	33	
9	1	1	0	0	498	535	501	519	27	33	
10	1	1	0	0	502	534	504	517	27	33	
11	1	1	0	0	501	528	505	515	26	33	
12	1	1	0	0	514	528	504	514	25	33	
13	1	1	0	0	526	523	502	511	25	33	
14	1	1	0	0	511	515	504	509	24	33	
15	1	1	0	0	517	503	511	506	23	33	
0	1	1	0	0	519	492	509	505	23	32	
1	1	1	0	0	507	492	504	503	22	32	
2	1	1	0	0	511	487	509	499	22	32	
3	1	1	0	0	545	492	512	496	21	32	
4	1	1	0	0	511	499	514	493	20	32	
5	1	1	0	0	490	506	513	489	20	32	
6	1	1	0	0	502	518	516	486	19	31	
7	1	1	0	0	532	536	519	482	19	31	
8	1	1	0	0	504	527	519	480	18	31	
9	1	1	0	0	486	515	516	476	18	31	
10	1	1	0	0	494	506	513	473	18	31	
11	1	1	0	0	516	519	507	470	18	31	
12	1	1	0	0	527	535	515	467	18	32	
13	1	1	0	0	544	541	508	463	18	32	
14	1	1	0	0	540	542	503	461	18	32	
15	1	1	0	0	496	527	507	457	19	32	
0	1	1	0	0	481	507	511	456	19	33	
1	1	1	0	0	507	499	516	454	19	33	
2	1	1	0	0	531	494	503	453	20	33	
3	1	1	0	0	489	503	498	452	20	34	
4	1	1	0	0	491	486	506	451	20	34	
5	1	1	0	0	494	478	504	453	21	34	
6	1	1	0	0	482	485	502	453	21	35	
7	1	1	0	0	504	493	504	452	21	35	
8	1	1	0	0	529	515	504	455	22	35	
9	1	1	0	0	525	530	496	455	22	36	
10	1	1	0	0	496	541	492	455	23	36	
11	1	1	0	0	515	541	504	456	23	36	
12	1	1	0	0	534	536	519	456	23	37	
13	1	1	0	0	524	541	524	456	23	37	
14	1	1	0	0	507	540	526	457	23	37	
15	1	1	0	0	505	540	523	458	23	37	
0	1	1	0	0	514	542	523	460	24	38	
1	1	1	0	0	502	536	538	462	24	38	
2	1	1	0	0	477	528	542	464	24	38	
3	1	1	0	0	489	514	536	466	24	38	
4	1	1	0	0	542	520	532	468	24	38	
5	1	1	0	0	559	538	519	471	25	39	
6	1	1	0	0	543	519	564	473	24	39	
7	1	1	0	0	537	491	589	474	25	40	
8	1	1	0	0	551	503	539	477	25	40	
9	1	1	0	0	551	530	477	479	26	41	
10	1	1	0	0	528	502	542	480	26	42	
11	1	1	0	0	490	465	582	483	26	43	
12	1	1	0	0	487	525	395	483	26	44	
13	1	1	0	0	529	569	336	485	27	45	
14	1	1	0	0	502	496	473	488	27	46	
15	1	1	0	0	518	487	494	489	27	47	
0	1	1	0	0	535	552	281	492	28	49	
1	1	1	0	0	517	535	374	494	28	51	
2	1	1	0	0	493	460	512	496	30	52	
3	1	1	0	0	487	482	500	499	31	54	
4	1	1	0	0	498	518	477	503	32	55	
5	1	1	0	0	508	522	517	506	34	55	
6	1	1	0	0	514	531	556	510	35	55	
7	1	1	0	0	522	533	606	515	36	55	
8	1	1	0	0	521	550	580	519	37	55	
9	1	1	0	0	519	571	567	523	38	55	
10	1	1	0	0	519	570	585	528	39	55	
11	1	1	0	0	535	572	577	534	39	55	
12	1	1	0	0	538	575	541	539	40	55	
13	1	1	0	0	581	600	477	545	40	55	
14	1	1	0	0	562	598	411	550	41	55	
15	1	1	0	0	547	592	404	554	41	55	
0	1	1	0	0	512	545	485	558	41	54	
1	1	1	0	0	517	528	527	563	41	52	
2	1	1	0	0	506	524	530	565	41	50	
3	1	1	0	0	507	519	556	567	41	48	
4	1	1	0	0	506	498	607	567	40	46	
5	1	1	0	0	490	490	633	567	40	44	
6	1	1	0	0	496	484	684	566	39	41	
7	1	1	0	0	493	504	636	565	38	39	
8	1	1	0	0	510	533	552	565	37	37	
9	1	1	0	0	517	575	403	564	36	34	
10	1	1	0	0	511	563	368	563	36	32	
11	1	1	0	0	499	521	393	563	34	30	
12	1	1	0	0	497	492	397	563	33	28	
13	1	1	0	0	490	457	470	563	33	27	
14	1	1	0	0	472	430	518	563	31	25	
15	1	1	0	0	471	442	496	561	31	24	
0	1	1	0	0	470	460	485	562	30	23	
1	1	1	0	0	479	474	478	562	30	22	
2	1	1	0	0	488	480	492	564	30	22	
3	1	1	0	0	496	504	479	568	29	22	
4	1	1	0	0	487	492	519	572	29	22	
5	1	1	0	0	491	492	524	577	30	23	
6	1	1	0	0	500	494	514	583	29	24	
7	1	1	0	0	510	503	503	588	30	25	
8	1	1	0	0	500	489	528	593	31	26	
9	1	1	0	0	497	483	526	596	31	27	
10	1	1	0	0	515	481	508	597	32	29	
11	1	1	0	0	512	481	487	596	32	30	
12	1	1	0	0	532	480	500	592	32	32	
13	1	1	0	0	555	473	509	586	32	33	
14	1	1	0	0	580	462	504	577	32	35	
15	1	1	0	0	605	470	486	566	33	36	
0	1	1	0	0	642	483	480	556	33	38	
1	1	1	0	0	662	483	494	543	34	39	
2	1	1	0	0	700	477	505	529	34	41	
3	1	1	0	0	771	471	514	515	34	42	
4	1	1	0	0	820	488	513	500	34	43	
5	1	1	0	0	879	508	512	486	35	45	
6	1	1	0	0	947	515	517	472	35	46	
7	1	1	0	0	920	531	514	458	35	47	
8	1	1	0	0	872	548	518	447	35	47	
9	1	1	0	0	797	557	519	435	35	48	
10	1	1	0	0	677	577	518	425	35	48	
11	1	1	0	0	565	582	519	415	35	49	
12	1	1	0	0	458	582	521	408	34	48	
13	1	1	0	0	350	585	518	401	34	48	
14	1	1	0	0	254	582	518	396	33	48	
15	1	1	0	0	184	575	519	391	33	47	
0	1	1	0	0	145	575	515	389	32	46	
1	1	1	0	0	104	566	515	388	31	45	
2	1	1	0	0	93	560	515	389	31	44	
3	1	1	0	0	149	547	514	391	29	42	
4	1	1	0	0	140	533	516	395	29	41	
5	1	1	0	0	154	520	518	399	28	40	
6	1	1	0	0	176	511	519	405	27	38	
7	1	1	0	0	212	498	518	412	26	37	
8	1	1	0	0	240	492	515	420	26	36	
9	1	1	0	0	267	487	516	430	25	35	
10	1	1	0	0	296	483	516	439	25	34	
11	1	1	0	0	296	477	518	449	24	33	
12	1	1	0	0	330	477	518	457	24	32	
13	1	1	0	0	412	472	521	466	23	32	
14	1	1	0	0	456	473	518	473	22	31	
15	1	1	0	0	484	480	517	480	22	31	
0	1	1	0	0	467	489	513	486	22	31	
1	1	1	0	0	491	499	510	491	22	31	
2	1	1	0	0	504	508	508	495	22	31	
3	1	1	0	0	533	506	506	499	21	31	
4	1	1	0	0	526	516	507	501	21	31	
5	1	1	0	0	518	514	509	503	21	31	
6	1	1	0	0	556	514	506	504	21	32	
7	1	1	0	0	545	529	506	504	21	32	
8	1	1	0	0	520	540	509	504	21	32	
9	1	1	0	0	553	545	512	502	21	33	
10	1	1	0	0	571	543	507	500	22	33	
11	1	1	0	0	565	559	507	499	22	33	
12	1	1	0	0	552	554	509	496	22	34	
13	1	1	0	0	540	530	500	495	22	34	
14	1	1	0	0	532	502	494	493	22	35	
15	1	1	0	0	507	470	506	492	22	35	
0	1	1	0	0	513	451	523	492	22	36	
1	1	1	0	0	525	439	499	492	22	36	
2	1	1	0	0	552	417	476	492	23	36	
3	1	1	0	0	596	419	479	492	22	37	
4	1	1	0	0	620	462	493	493	22	37	
5	1	1	0	0	608	491	499	492	22	37	
6	1	1	0	0	626	499	504	491	22	37	
7	1	1	0	0	604	500	507	488	22	36	
8	1	1	0	0	557	510	499	487	22	36	
9	1	1	0	0	531	518	505	484	22	36	
10	1	1	0	0	560	513	504	482	22	36	
11	1	1	0	0	640	517	514	479	21	36	
12	1	1	0	0	610	533	514	476	21	36	
13	1	1	0	0	606	539	507	472	21	36	
14	1	1	0	0	621	547	509	468	21	36	
15	1	1	0	0	527	564	513	464	21	36	
0	1	1	0	0	465	577	519	462	21	36	
1	1	1	0	0	459	573	542	458	21	36	
2	1	1	0	0	442	547	546	455	22	36	
3	1	1	0	0	430	527	521	453	21	36	
4	1	1	0	0	513	506	502	449	21	36	
5	1	1	0	0	560	503	505	447	21	36	
6	1	1	0	0	625	508	513	444	21	36	
7	1	1	0	0	665	499	515	441	22	36	
8	1	1	0	0	591	521	489	439	22	37	
9	1	1	0	0	531	540	497	437	22	37	
10	1	1	0	0	591	526	512	435	22	37	
11	1	1	0	0	526	508	510	433	22	37	
12	1	1	0	0	484	475	510	430	22	37	
13	1	1	0	0	480	452	504	429	22	37	
14	1	1	0	0	502	461	508	426	22	37	
15	1	1	0	0	480	499	524	424	23	37	
0	1	1	0	0	436	515	519	423	23	37	
1	1	1	0	0	403	513	488	422	23	38	
2	1	1	0	0	474	515	480	422	24	38	
3	1	1	0	0	502	527	490	421	24	38	
4	1	1	0	0	544	521	507	420	24	38	
5	1	1	0	0	579	504	517	420	25	38	
6	1	1	0	0	510	501	515	420	25	38	
7	1	1	0	0	466	486	500	420	25	38	
8	1	1	0	0	445	482	498	422	26	38	
9	1	1	0	0	435	463	499	422	26	39	
10	1	1	0	0	455	459	509	423	27	39	
11	1	1	0	0	463	487	503	424	27	39	
12	1	1	0	0	476	502	492	425	27	39	
13	1	1	0	0	519	518	500	427	27	39	
14	1	1	0	0	573	532	512	428	27	40	
15	1	1	0	0	546	553	517	430	28	40	
0	1	1	0	0	524	568	512	434	28	40	
1	1	1	0	0	527	577	508	438	29	40	
2	1	1	0	0	527	583	514	441	30	40	
3	1	1	0	0	507	585	512	444	30	40	
4	1	1	0	0	526	585	513	448	30	40	
5	1	1	0	0	572	586	513	451	31	40	
6	1	1	0	0	583	586	514	455	31	40	
7	1	1	0	0	571	576	509	458	32	40	
8	1	1	0	0	531	587	512	462	32	40	
9	1	1	0	0	514	588	514	466	32	40	
10	1	1	0	0	512	572	512	470	33	40	
11	1	1	0	0	517	556	507	475	33	39	
12	1	1	0	0	534	534	509	479	34	39	
13	1	1	0	0	546	524	508	484	34	39	
14	1	1	0	0	543	520	510	491	35	39	
15	1	1	0	0	515	511	510	495	36	39	
0	1	1	0	0	492	496	510	502	36	38	
1	1	1	0	0	489	506	510	508	37	38	
2	1	1	0	0	505	510	513	515	38	38	
3	1	1	0	0	574	520	518	523	38	38	
4	1	1	0	0	573	530	515	529	39	38	
5	1	1	0	0	540	537	510	536	39	38	
6	1	1	0	0	506	526	513	542	39	38	
7	1	1	0	0	508	525	510	548	40	38	
8	1	1	0	0	502	508	511	554	41	37	
9	1	1	0	0	500	502	511	559	41	37	
10	1	1	0	0	509	483	507	564	42	37	
11	1	1	0	0	512	484	507	570	42	37	
12	1	1	0	0	511	472	506	573	43	37	
13	1	1	0	0	568	465	515	576	43	37	
14	1	1	0	0	577	471	517	578	43	37	
15	1	1	0	0	546	472	514	578	44	37	
0	1	1	0	0	524	464	515	579	44	37	
1	1	1	0	0	529	461	511	579	44	37	
2	1	1	0	0	519	465	510	578	44	37	
3	1	1	0	0	508	479	511	577	44	36	
4	1	1	0	0	511	483	514	576	44	36	
5	1	1	0	0	532	485	514	575	44	36	
6	1	1	0	0	556	486	508	574	43	35	
7	1	1	0	0	561	500	505	572	43	35	
8	1	1	0	0	540	500	504	572	42	35	
9	1	1	0	0	516	510	505	572	41	34	
10	1	1	0	0	536	521	504	572	41	34	
11	1	1	0	0	586	524	509	572	40	33	
12	1	1	0	0	589	510	507	573	39	32	
13	1	1	0	0	569	481	500	574	38	32	
14	1	1	0	0	569	477	506	577	37	31	
15	1	1	0	0	536	461	507	579	36	31	
0	1	1	0	0	505	463	508	583	35	30	
1	1	1	0	0	480	455	507	587	34	30	
2	1	1	0	0	476	458	511	590	33	29	
3	1	1	0	0	471	457	516	593	32	29	
4	1	1	0	0	452	455	511	595	31	29	
5	1	1	0	0	421	466	515	597	30	29	
6	1	1	0	0	378	483	516	599	29	29	
7	1	1	0	0	339	485	515	599	28	29	
8	1	1	0	0	335	494	516	599	27	30	
9	1	1	0	0	355	504	504	599	26	30	
10	1	1	0	0	403	508	507	597	25	30	
11	1	1	0	0	430	510	510	597	24	30	
12	1	1	0	0	435	517	516	593	23	30	
13	1	1	0	0	405	514	508	590	22	30	
14	1	1	0	0	427	505	515	584	21	30	
15	1	1	0	0	468	516	511	576	21	29	
0	1	1	0	0	504	525	506	568	20	29	
1	1	1	0	0	485	518	487	557	19	29	
2	1	1	0	0	496	505	503	545	19	29	
3	1	1	0	0	521	497	516	531	17	29	
4	1	1	0	0	507	497	504	515	17	29	
5	1	1	0	0	496	492	507	500	16	28	
6	1	1	0	0	570	497	516	485	15	28	
7	1	1	0	0	561	493	515	471	15	28	
8	1	1	0	0	511	497	512	457	14	28	
9	1	1	0	0	513	487	517	445	14	27	
10	1	1	0	0	536	497	523	433	14	27	
11	1	1	0	0	529	504	515	423	13	27	
12	1	1	0	0	538	511	514	414	13	27	
13	1	1	0	0	516	510	519	406	13	27	
14	1	1	0	0	512	519	515	401	13	27	
15	1	1	0	0	543	543	507	397	14	27	
0	1	1	0	0	546	546	492	395	14	27	
1	1	1	0	0	536	546	487	395	15	28	
2	1	1	0	0	529	544	494	397	16	28	
3	1	1	0	0	540	539	506	399	16	28	
4	1	1	0	0	535	530	507	404	17	29	
5	1	1	0	0	543	532	513	409	18	29	
6	1	1	0	0	561	524	515	415	19	30	
7	1	1	0	0	534	524	518	421	20	31	
8	1	1	0	0	533	534	514	428	21	31	
9	1	1	0	0	560	533	501	437	22	32	
10	1	1	0	0	533	535	493	444	23	32	
11	1	1	0	0	532	521	495	452	23	33	
12	1	1	0	0	541	513	514	459	24	33	
13	1	1	0	0	520	538	519	467	25	33	
14	1	1	0	0	496	549	514	475	25	33	
15	1	1	0	0	517	542	502	483	26	33	
0	1	1	0	0	572	531	491	491	26	33	
1	1	1	0	0	561	531	491	499	26	33	
2	1	1	0	0	536	534	493	507	27	33	
3	1	1	0	0	517	532	504	512	27	34	
4	1	1	0	0	502	516	515	514	27	35	
5	1	1	0	0	497	470	509	517	27	36	
6	1	1	0	0	502	499	513	517	27	38	
7	1	1	0	0	497	475	553	515	28	39	
8	1	1	0	0	495	467	583	513	28	41	
9	1	1	0	0	498	478	572	509	28	43	
10	1	1	0	0	498	499	547	505	28	45	
11	1	1	0	0	501	537	549	500	28	47	
12	1	1	0	0	497	555	534	494	29	49	
13	1	1	0	0	506	583	477	488	30	51	
14	1	1	0	0	526	643	288	483	31	54	
15	1	1	0	0	550	643	295	478	32	55	
0	1	1	0	0	526	546	513	475	33	55	
1	1	1	0	0	497	494	650	471	34	55	
2	1	1	0	0	546	501	680	469	35	55	
3	1	1	0	0	570	545	626	467	36	55	
4	1	1	0	0	592	591	574	464	37	55	
5	1	1	0	0	585	632	474	462	37	55	
6	1	1	0	0	569	657	421	460	38	55	
7	1	1	0	0	548	664	335	458	39	55	
8	1	1	0	0	538	646	343	457	40	55	
9	1	1	0	0	510	583	422	458	40	55	
10	1	1	0	0	504	541	497	461	41	55	
11	1	1	0	0	501	534	509	467	41	55	
12	1	1	0	0	512	534	497	474	41	55	
13	1	1	0	0	521	521	532	481	41	55	
14	1	1	0	0	524	470	561	489	40	55	
15	1	1	0	0	505	476	557	497	39	52	
0	1	1	0	0	531	498	547	504	38	49	
1	1	1	0	0	569	542	545	510	36	45	
2	1	1	0	0	570	515	557	515	35	41	
3	1	1	0	0	580	497	550	519	33	38	
4	1	1	0	0	583	490	546	522	31	34	
5	1	1	0	0	536	482	539	525	29	30	
6	1	1	0	0	524	489	525	532	27	27	
7	1	1	0	0	513	483	556	538	26	24	
8	1	1	0	0	347	484	524	546	25	22	
9	1	1	0	0	294	498	499	552	25	20	
10	1	1	0	0	304	489	496	557	25	19	
11	1	1	0	0	364	470	522	560	25	18	
12	1	1	0	0	411	454	526	559	25	18	
13	1	1	0	0	399	449	511	559	26	18	
14	1	1	0	0	444	447	504	557	26	19	
15	1	1	0	0	512	431	500	554	27	19	
0	1	1	0	0	575	435	477	553	28	20	
1	1	1	0	0	692	445	470	551	28	21	
2	1	1	0	0	820	452	483	550	29	22	
3	1	1	0	0	824	464	484	551	29	23	
4	1	1	0	0	755	480	500	553	29	24	
5	1	1	0	0	636	494	520	555	29	26	
6	1	1	0	0	588	497	519	558	29	27	
7	1	1	0	0	544	511	496	560	29	28	
8	1	1	0	0	503	536	497	564	28	30	
9	1	1	0	0	468	550	526	568	28	32	
10	1	1	0	0	557	564	535	571	28	33	
11	1	1	0	0	549	560	526	572	27	35	
12	1	1	0	0	588	557	514	574	26	36	
13	1	1	0	0	607	536	522	575	25	38	
14	1	1	0	0	517	515	520	575	23	39	
15	1	1	0	0	425	505	500	573	23	40	
0	1	1	0	0	389	503	501	572	22	41	
1	1	1	0	0	361	560	490	568	20	42	
2	1	1	0	0	247	574	476	563	20	43	
3	1	1	0	0	207	539	476	557	18	44	
4	1	1	0	0	297	512	494	550	17	44	
5	1	1	0	0	228	502	518	543	16	45	
6	1	1	0	0	215	478	529	535	14	45	
7	1	1	0	0	261	442	533	527	14	46	
8	1	1	0	0	362	368	521	518	13	46	
9	1	1	0	0	409	427	510	510	12	46	
10	1	1	0	0	306	511	519	500	12	46	
11	1	1	0	0	235	535	523	489	11	46	
12	1	1	0	0	184	481	534	477	10	46	
13	1	1	0	0	225	458	520	465	10	46	
14	1	1	0	0	312	464	502	451	9	46	
15	1	1	0	0	331	448	480	435	9	45	
0	1	1	0	0	419	444	471	422	9	45	
1	1	1	0	0	532	458	482	408	10	44	
2	1	1	0	0	571	474	493	396	10	44	
3	1	1	0	0	547	502	499	385	10	44	
4	1	1	0	0	624	527	515	374	11	44	
5	1	1	0	0	638	567	523	368	12	43	
6	1	1	0	0	552	572	530	363	12	43	
7	1	1	0	0	535	578	529	359	13	43	
8	1	1	0	0	591	572	540	358	13	43	
9	1	1	0	0	647	555	535	360	14	43	
10	1	1	0	0	668	522	521	365	15	43	
11	1	1	0	0	689	464	525	372	15	43	
12	1	1	0	0	674	441	524	380	16	43	
13	1	1	0	0	603	518	509	391	17	42	
14	1	1	0	0	640	572	484	404	17	42	
15	1	1	0	0	631	636	478	418	19	42	
0	1	1	0	0	592	687	489	434	20	41	
1	1	1	0	0	579	654	502	449	21	41	
2	1	1	0	0	616	616	499	465	23	41	
3	1	1	0	0	635	582	492	480	24	41	
4	1	1	0	0	599	506	496	493	25	40	
5	1	1	0	0	572	407	489	505	27	40	
6	1	1	0	0	585	334	467	516	28	40	
7	1	1	0	0	561	326	459	525	29	40	
8	1	1	0	0	514	352	462	533	30	40	
9	1	1	0	0	538	404	473	540	32	40	
10	1	1	0	0	493	457	499	545	33	40	
11	1	1	0	0	568	499	520	550	34	39	
12	1	1	0	0	588	527	535	552	35	39	
13	1	1	0	0	494	547	525	553	36	39	
14	1	1	0	0	500	548	517	553	36	39	
15	1	1	0	0	520	535	522	552	37	39	
0	1	1	0	0	512	551	531	551	38	39	
1	1	1	0	0	527	550	530	548	39	39	
2	1	1	0	0	506	553	520	544	40	39	
3	1	1	0	0	499	563	523	540	40	39	
4	1	1	0	0	514	559	526	536	40	39	
5	1	1	0	0	502	572	523	530	41	39	
6	1	1	0	0	500	577	524	525	41	39	
7	1	1	0	0	500	590	518	520	41	39	
8	1	1	0	0	494	591	515	516	41	39	
9	1	1	0	0	493	590	511	513	42	39	
10	1	1	0	0	493	591	510	508	42	39	
11	1	1	0	0	498	582	512	506	42	39	
12	1	1	0	0	506	572	511	502	42	39	
13	1	1	0	0	529	560	510	499	42	38	
14	1	1	0	0	541	540	508	497	42	38	
15	1	1	0	0	539	528	510	495	42	38	
0	1	1	0	0	551	534	509	495	42	38	
1	1	1	0	0	550	524	509	496	42	38	
2	1	1	0	0	546	510	509	498	43	37	
3	1	1	0	0	545	508	509	501	42	37	
4	1	1	0	0	536	493	510	504	42	37	
5	1	1	0	0	533	491	509	509	42	36	
6	1	1	0	0	545	483	511	513	42	36	
7	1	1	0	0	563	482	510	519	42	36	
8	1	1	0	0	562	479	508	526	42	36	
9	1	1	0	0	552	478	507	533	41	35	
10	1	1	0	0	554	476	509	539	41	35	
11	1	1	0	0	563	482	515	545	41	35	
12	1	1	0	0	551	487	515	551	40	35	
13	1	1	0	0	556	498	512	557	40	34	
14	1	1	0	0	591	504	508	562	39	34	
15	1	1	0	0	607	511	507	566	38	34	
0	1	1	0	0	581	498	512	570	38	33	
1	1	1	0	0	573	494	513	572	37	33	
2	1	1	0	0	575	476	513	575	37	33	
3	1	1	0	0	566	474	509	576	36	32	
4	1	1	0	0	546	470	507	579	35	32	
5	1	1	0	0	540	464	509	580	35	32	
6	1	1	0	0	537	468	510	582	34	32	
7	1	1	0	0	543	460	507	583	34	31	
8	1	1	0	0	500	454	504	585	33	31	
9	1	1	0	0	462	462	507	587	33	31	
10	1	1	0	0	437	462	510	589	33	31	
11	1	1	0	0	418	480	510	591	32	30	
12	1	1	0	0	404	486	507	592	31	30	
13	1	1	0	0	395	503	511	593	31	30	
14	1	1	0	0	385	520	508	595	31	30	
15	1	1	0	0	365	519	508	595	30	29	
0	1	1	0	0	356	517	507	598	30	29	
1	1	1	0	0	364	521	511	598	30	29	
2	1	1	0	0	367	520	512	598	29	29	
3	1	1	0	0	386	528	511	598	28	29	
4	1	1	0	0	410	532	504	595	28	28	
5	1	1	0	0	426	541	498	592	27	28	
6	1	1	0	0	438	540	498	589	26	28	
7	1	1	0	0	443	532	504	584	26	28	
8	1	1	0	0	457	523	508	580	25	28	
9	1	1	0	0	476	511	511	573	25	28	
10	1	1	0	0	484	503	509	565	25	28	
11	1	1	0	0	495	495	510	557	24	28	
12	1	1	0	0	497	488	511	547	23	28	
13	1	1	0	0	499	479	512	536	22	28	
14	1	1	0	0	512	475	512	525	21	28	
15	1	1	0	0	516	472	513	513	21	28	
0	1	1	0	0	524	469	516	501	20	29	
1	1	1	0	0	528	470	517	488	19	29	
2	1	1	0	0	535	472	513	475	19	30	
3	1	1	0	0	534	480	512	462	18	30	
4	1	1	0	0	534	483	511	449	17	30	
5	1	1	0	0	537	491	511	437	17	31	
6	1	1	0	0	542	492	512	427	16	31	
7	1	1	0	0	544	504	512	418	16	32	
8	1	1	0	0	543	513	509	412	16	32	
9	1	1	0	0	543	520	509	407	16	32	
10	1	1	0	0	541	523	508	403	17	33	
11	1	1	0	0	540	527	508	401	17	33	
12	1	1	0	0	539	535	507	401	17	33	
13	1	1	0	0	539	543	505	402	18	34	
14	1	1	0	0	544	556	505	406	18	34	
15	1	1	0	0	531	549	504	408	19	34	
0	1	1	0	0	537	544	510	414	20	34	
1	1	1	0	0	544	542	513	419	21	35	
2	1	1	0	0	539	546	510	425	22	35	
3	1	1	0	0	531	545	506	431	22	35	
4	1	1	0	0	528	550	505	436	23	36	
5	1	1	0	0	527	546	510	440	24	36	
6	1	1	0	0	521	543	505	444	24	37	
7	1	1	0	0	519	541	503	447	25	37	
8	1	1	0	0	519	539	498	451	26	38	
9	1	1	0	0	524	550	503	452	26	39	
10	1	1	0	0	521	547	506	455	27	39	
11	1	1	0	0	523	555	505	456	27	40	
12	1	1	0	0	524	563	507	457	27	41	
13	1	1	0	0	524	553	507	457	28	42	
14	1	1	0	0	522	552	503	457	27	43	
15	1	1	0	0	519	539	500	455	28	43	
0	1	1	0	0	514	535	503	456	28	44	
1	1	1	0	0	511	529	505	455	29	45	
2	1	1	0	0	512	531	508	455	29	46	
3	1	1	0	0	510	537	505	455	29	46	
4	1	1	0	0	510	536	507	455	29	47	
5	1	1	0	0	507	549	507	455	30	48	
6	1	1	0	0	510	534	510	455	30	48	
7	1	1	0	0	508	528	508	455	31	49	
8	1	1	0	0	510	529	511	455	31	49	
9	1	1	0	0	508	525	511	455	32	50	
10	1	1	0	0	512	522	510	455	32	51	
11	1	1	0	0	513	529	511	455	32	51	
12	1	1	0	0	512	534	511	454	33	52	
13	1	1	0	0	514	539	512	454	33	52	
14	1	1	0	0	511	540	508	453	33	53	
15	1	1	0	0	515	539	509	454	34	53	
0	1	1	0	0	518	536	510	455	34	53	
1	1	1	0	0	520	539	511	457	34	53	
2	1	1	0	0	529	528	512	460	35	53	
3	1	1	0	0	532	527	510	464	35	52	
4	1	1	0	0	531	524	511	468	35	52	
5	1	1	0	0	531	523	511	473	35	51	
6	1	1	0	0	529	517	513	479	36	50	
7	1	1	0	0	521	512	516	484	36	49	
8	1	1	0	0	514	509	518	491	37	49	
9	1	1	0	0	519	510	513	497	37	47	
10	1	1	0	0	511	502	512	504	37	46	
11	1	1	0	0	503	508	511	511	37	45	
12	1	1	0	0	495	507	514	516	38	44	
13	1	1	0	0	495	501	518	522	38	43	
14	1	1	0	0	493	507	508	528	37	42	
15	1	1	0	0	483	497	510	532	37	41	
0	1	1	0	0	487	491	511	539	37	39	
1	1	1	0	0	491	485	513	542	36	38	
2	1	1	0	0	489	476	513	545	36	37	
3	1	1	0	0	489	467	514	549	35	36	
4	1	1	0	0	497	480	512	551	35	35	
5	1	1	0	0	497	482	510	553	34	34	
6	1	1	0	0	488	477	512	553	33	34	
7	1	1	0	0	490	478	513	552	33	33	
8	1	1	0	0	492	484	510	553	32	32	
9	1	1	0	0	493	486	510	552	31	32	
10	1	1	0	0	497	482	510	551	30	31	
11	1	1	0	0	498	475	511	550	29	31	
12	1	1	0	0	497	475	510	548	29	30	
13	1	1	0	0	498	478	510	546	28	30	
14	1	1	0	0	498	482	510	543	27	30	
15	1	1	0	0	501	484	510	541	27	30	
0	1	1	0	0	503	484	510	539	27	30	
1	1	1	0	0	506	488	508	536	26	30	
2	1	1	0	0	509	493	507	532	26	30	
3	1	1	0	0	509	497	504	529	25	30	
4	1	1	0	0	510	503	504	526	25	30	
5	1	1	0	0	511	505	503	522	24	30	
6	1	1	0	0	505	505	507	519	24	30	
7	1	1	0	0	510	507	506	517	24	30	
8	1	1	0	0	511	510	506	514	24	30	
9	1	1	0	0	512	511	507	512	23	31	
10	1	1	0	0	510	512	507	510	23	31	
11	1	1	0	0	511	512	508	509	23	31	
12	1	1	0	0	509	508	507	507	22	31	
13	1	1	0	0	508	509	506	504	22	31	
14	1	1	0	0	508	505	508	503	21	31	
15	1	1	0	0	508	506	507	500	22	31	
0	1	1	0	0	511	510	506	499	21	32	
1	1	1	0	0	512	511	505	498	21	32	
2	1	1	0	0	512	509	507	496	21	32	
3	1	1	0	0	508	510	509	495	21	32	
4	1	1	0	0	506	515	511	494	21	32	
5	1	1	0	0	509	511	510	494	21	32	
6	1	1	0	0	514	512	510	494	20	33	
7	1	1	0	0	514	511	507	492	21	33	
8	1	1	0	0	512	517	505	492	21	33	
9	1	1	0	0	512	520	506	492	21	34	
10	1	1	0	0	511	517	507	490	21	34	
11	1	1	0	0	515	523	505	490	21	34	
12	1	1	0	0	513	528	509	488	21	34	
13	1	1	0	0	519	524	508	488	21	34	
14	1	1	0	0	520	529	509	488	21	35	
15	1	1	0	0	521	527	511	487	22	35	
0	1	1	0	0	519	524	511	487	22	35	
1	1	1	0	0	519	522	511	486	22	35	
2	1	1	0	0	526	519	512	486	23	35	
3	1	1	0	0	525	515	512	485	23	36	
4	1	1	0	0	516	521	507	483	23	36	
5	1	1	0	0	511	531	510	482	23	36	
6	1	1	0	0	510	524	509	480	23	36	
7	1	1	0	0	507	511	508	479	24	37	
8	1	1	0	0	510	511	507	479	24	37	
9	1	1	0	0	517	524	510	478	24	37	
10	1	1	0	0	515	524	505	477	24	37	
11	1	1	0	0	510	521	503	477	24	37	
12	1	1	0	0	508	523	502	476	25	37	
13	1	1	0	0	508	522	507	476	25	38	
14	1	1	0	0	513	515	509	475	25	38	
15	1	1	0	0	518	483	507	474	25	38	
0	1	1	0	0	514	475	503	473	26	38	
1	1	1	0	0	508	486	508	474	26	38	
2	1	1	0	0	507	509	511	473	26	38	
3	1	1	0	0	502	528	511	473	26	38	
4	1	1	0	0	502	534	506	472	27	38	
5	1	1	0	0	517	531	510	472	27	38	
6	1	1	0	0	527	534	512	473	27	38	
7	1	1	0	0	503	528	512	472	27	38	
8	1	1	0	0	489	526	510	472	27	38	
9	1	1	0	0	497	532	507	472	27	39	
10	1	1	0	0	518	532	511	472	28	39	
11	1	1	0	0	534	541	511	472	28	39	
12	1	1	0	0	522	530	507	471	28	39	
13	1	1	0	0	509	511	507	471	28	39	
14	1	1	0	0	508	506	508	471	28	39	
15	1	1	0	0	518	515	508	470	28	39	
0	1	1	0	0	519	523	510	471	28	39	
1	1	1	0	0	513	519	510	472	28	39	
2	1	1	0	0	509	521	510	472	29	38	
3	1	1	0	0	510	526	508	473	28	38	
4	1	1	0	0	511	523	511	473	29	38	
5	1	1	0	0	514	515	511	473	29	38	
6	1	1	0	0	524	518	512	474	29	38	
7	1	1	0	0	524	523	511	474	29	38	
8	1	1	0	0	520	526	510	475	29	38	
9	1	1	0	0	519	529	511	476	30	38	
10	1	1	0	0	522	527	511	477	30	38	
11	1	1	0	0	515	520	510	477	30	38	
12	1	1	0	0	513	518	511	478	30	38	
13	1	1	0	0	514	519	511	479	30	38	
14	1	1	0	0	515	519	511	479	30	38	
15	1	1	0	0	514	519	509	481	31	38	
0	1	1	0	0	513	516	510	482	31	38	
1	1	1	0	0	516	517	511	483	31	38	
2	1	1	0	0	512	518	509	484	31	38	
3	1	1	0	0	512	520	510	485	31	38	
4	1	1	0	0	510	517	511	485	31	38	
5	1	1	0	0	511	513	510	485	32	38	
6	1	1	0	0	504	504	508	486	31	38	
7	1	1	0	0	505	506	507	486	32	38	
8	1	1	0	0	505	489	508	487	32	38	
9	1	1	0	0	501	477	503	488	32	38	
10	1	1	0	0	487	489	507	489	32	38	
11	1	1	0	0	501	495	507	490	32	38	
12	1	1	0	0	500	505	509	491	31	38	
13	1	1	0	0	502	506	508	491	31	38	
14	1	1	0	0	507	510	507	492	31	38	
15	1	1	0	0	508	506	509	492	31	38	
0	1	1	0	0	500	508	510	493	31	38	
1	1	1	0	0	500	510	508	494	31	38	
2	1	1	0	0	502	512	510	494	31	38	
3	1	1	0	0	505	511	508	495	30	38	
4	1	1	0	0	507	508	510	495	30	38	
5	1	1	0	0	510	510	510	495	30	38	
6	1	1	0	0	510	511	508	496	29	38	
7	1	1	0	0	507	515	510	497	30	38	
8	1	1	0	0	507	516	509	498	29	38	
9	1	1	0	0	506	519	509	499	29	38	
10	1	1	0	0	506	520	509	500	29	38	
11	1	1	0	0	508	522	510	501	29	38	
12	1	1	0	0	508	524	511	502	29	38	
13	1	1	0	0	507	526	509	502	28	38	
14	1	1	0	0	505	521	509	503	28	38	
15	1	1	0	0	505	516	511	503	28	37	
0	1	1	0	0	508	515	508	504	28	37	
1	1	1	0	0	504	513	511	505	27	37	
2	1	1	0	0	506	507	509	505	28	37	
3	1	1	0	0	508	501	508	506	27	37	
4	1	1	0	0	512	504	507	505	27	37	
5	1	1	0	0	506	504	507	507	27	37	
6	1	1	0	0	503	507	509	506	26	37	
7	1	1	0	0	505	508	508	507	27	37	
8	1	1	0	0	507	512	509	507	27	36	
9	1	1	0	0	512	514	510	506	27	36	
10	1	1	0	0	512	511	510	506	27	36	
11	1	1	0	0	510	508	510	505	26	36	
12	1	1	0	0	508	507	510	505	26	36	
13	1	1	0	0	506	506	509	504	26	36	
14	1	1	0	0	507	508	508	504	26	36	
15	1	1	0	0	504	509	508	503	26	36	
0	1	1	0	0	516	513	508	503	26	36	
1	1	1	0	0	523	514	508	503	26	36	
2	1	1	0	0	516	515	508	502	27	36	
3	1	1	0	0	511	513	508	502	27	36	
4	1	1	0	0	508	507	510	500	27	36	
5	1	1	0	0	510	507	511	499	27	36	
6	1	1	0	0	508	510	510	499	27	36	
7	1	1	0	0	508	513	509	497	27	36	
8	1	1	0	0	509	511	512	496	27	36	
9	1	1	0	0	510	510	509	496	27	36	
10	1	1	0	0	509	504	510	495	28	36	
11	1	1	0	0	508	508	509	495	27	36	
12	1	1	0	0	508	511	510	494	28	36	
13	1	1	0	0	506	514	508	492	28	36	
14	1	1	0	0	510	512	509	492	27	36	
15	1	1	0	0	512	516	511	491	28	36	
0	1	1	0	0	511	516	509	490	28	36	
1	1	1	0	0	511	516	509	489	28	36	
2	1	1	0	0	508	518	507	488	28	36	
3	1	1	0	0	510	519	508	488	28	36	
4	1	1	0	0	512	518	510	486	28	36	
5	1	1	0	0	512	514	510	485	28	36	
6	1	1	0	0	512	505	510	484	28	37	
7	1	1	0	0	512	511	511	483	29	37	
8	1	1	0	0	511	511	507	482	29	37	
9	1	1	0	0	512	509	508	481	29	37	
10	1	1	0	0	511	512	508	480	29	37	
11	1	1	0	0	511	511	507	479	29	37	
12	1	1	0	0	507	511	508	477	29	37	
13	1	1	0	0	510	514	508	477	29	37	
14	1	1	0	0	508	519	507	475	28	37	
15	1	1	0	0	510	524	506	473	28	37	
0	1	1	0	0	510	522	506	472	28	38	
1	1	1	0	0	508	520	507	471	28	38	
2	1	1	0	0	510	520	509	471	29	38	
3	1	1	0	0	509	518	511	470	28	38	
4	1	1	0	0	509	512	507	468	28	38	
5	1	1	0	0	513	508	511	467	28	38	
6	1	1	0	0	512	500	509	466	28	38	
7	1	1	0	0	514	499	508	465	28	38	
8	1	1	0	0	514	497	508	465	28	38	
9	1	1	0	0	515	499	508	463	28	38	
10	1	1	0	0	512	499	507	463	28	38	
11	1	1	0	0	510	508	507	462	28	38	
12	1	1	0	0	510	517	508	460	28	38	
13	1	1	0	0	511	521	510	460	28	39	
14	1	1	0	0	510	526	508	459	28	39	
15	1	1	0	0	511	523	507	458	28	39	
0	1	1	0	0	511	525	504	458	28	39	
1	1	1	0	0	510	526	504	458	28	39	
2	1	1	0	0	510	518	508	458	28	39	
3	1	1	0	0	512	511	508	458	28	39	
4	1	1	0	0	512	510	509	457	28	39	
5	1	1	0	0	509	507	508	457	28	39	
6	1	1	0	0	510	511	510	457	27	39	
7	1	1	0	0	509	517	513	456	28	39	
8	1	1	0	0	511	526	512	456	28	39	
9	1	1	0	0	510	530	513	456	27	39	
10	1	1	0	0	512	531	512	457	28	39	
11	1	1	0	0	513	532	513	458	27	39	
12	1	1	0	0	513	534	512	457	27	39	
13	1	1	0	0	515	527	509	458	27	39	
14	1	1	0	0	517	509	511	458	27	39	
15	1	1	0	0	517	503	508	458	27	39	
0	1	1	0	0	511	499	507	459	27	39	
1	1	1	0	0	508	512	509	460	27	39	
2	1	1	0	0	509	519	512	460	28	38	
3	1	1	0	0	510	517	512	461	27	38	
4	1	1	0	0	511	529	513	461	27	38	
5	1	1	0	0	508	518	510	462	27	38	
6	1	1	0	0	508	515	510	462	27	38	
7	1	1	0	0	510	510	510	463	27	38	
8	1	1	0	0	510	505	508	463	27	38	
9	1	1	0	0	511	500	505	464	27	38	
10	1	1	0	0	511	492	504	465	28	38	
11	1	1	0	0	512	487	505	467	27	38	
12	1	1	0	0	510	494	503	467	27	38	
13	1	1	0	0	508	504	506	467	27	38	
14	1	1	0	0	508	516	507	467	27	38	
15	1	1	0	0	510	524	509	467	27	38	
0	1	1	0	0	507	525	509	468	27	38	
1	1	1	0	0	505	526	511	468	27	38	
2	1	1	0	0	508	526	511	470	28	38	
3	1	1	0	0	511	520	512	471	27	38	
4	1	1	0	0	512	520	510	472	28	38	
5	1	1	0	0	513	520	510	472	28	38	
6	1	1	0	0	511	516	511	472	27	38	
7	1	1	0	0	509	518	511	473	28	38	
8	1	1	0	0	509	516	512	473	28	38	
9	1	1	0	0	510	515	510	474	28	38	
10	1	1	0	0	509	514	511	474	28	38	
11	1	1	0	0	508	512	511	475	28	38	
12	1	1	0	0	508	515	508	475	28	38	
13	1	1	0	0	507	516	509	475	28	38	
14	1	1	0	0	508	508	509	476	27	38	
15	1	1	0	0	507	512	508	476	28	38	
0	1	1	0	0	507	513	508	476	28	38	
1	1	1	0	0	512	513	510	476	28	38	
2	1	1	0	0	516	498	510	477	28	38	
3	1	1	0	0	513	496	505	477	28	38	
4	1	1	0	0	510	502	508	476	28	38	
5	1	1	0	0	508	508	508	476	28	38	
6	1	1	0	0	509	509	509	476	27	38	
7	1	1	0	0	509	515	509	475	28	38	
8	1	1	0	0	509	516	506	476	28	38	
9	1	1	0	0	508	514	508	476	28	38	
10	1	1	0	0	507	514	509	477	28	38	
11	1	1	0	0	507	514	511	476	28	38	
12	1	1	0	0	507	514	509	476	28	38	
13	1	1	0	0	510	514	511	477	28	38	
14	1	1	0	0	510	513	509	476	27	38	
15	1	1	0	0	508	511	509	476	28	38	
0	1	1	0	0	511	509	510	476	28	38	
1	1	1	0	0	508	514	509	476	28	38	
2	1	1	0	0	511	514	509	476	28	38	
3	1	1	0	0	512	510	508	477	28	38	
4	1	1	0	0	513	514	509	477	28	38	
5	1	1	0	0	511	518	510	477	28	38	
6	1	1	0	0	511	520	508	477	27	38	
7	1	1	0	0	511	519	509	477	28	38	
8	1	1	0	0	510	512	507	478	28	38	
9	1	1	0	0	511	508	509	478	28	38	
10	1	1	0	0	511	513	508	479	28	38	
11	1	1	0	0	510	514	508	478	28	38	
12	1	1	0	0	511	515	509	478	28	38	
13	1	1	0	0	511	516	509	478	28	38	
14	1	1	0	0	509	515	508	479	27	38	
15	1	1	0	0	509	513	509	478	28	38	
0	1	1	0	0	509	514	509	479	28	38	
1	1	1	0	0	510	514	508	479	28	38	
2	1	1	0	0	511	511	509	479	28	38	
3	1	1	0	0	511	512	510	480	28	38	
4	1	1	0	0	510	513	511	479	28	38	
5	1	1	0	0	510	513	508	480	28	38	
6	1	1	0	0	511	513	511	479	28	38	
7	1	1	0	0	512	512	510	479	28	38	
8	1	1	0	0	509	510	509	479	28	38	
9	1	1	0	0	510	515	509	478	28	38	
10	1	1	0	0	508	515	509	479	28	38	
11	1	1	0	0	511	515	510	479	28	38	
12	1	1	0	0	511	515	509	479	28	38	
13	1	1	0	0	510	512	507	479	28	38	
14	1	1	0	0	510	514	510	478	28	38	
15	1	1	0	0	510	515	509	477	28	38	
0	1	1	0	0	509	517	510	478	28	38	
1	1	1	0	0	512	516	509	478	28	38	
2	1	1	0	0	513	514	509	478	28	38	
3	1	1	0	0	508	513	509	478	28	38	
4	1	1	0	0	507	513	508	477	28	38	
5	1	1	0	0	510	514	511	477	28	38	
6	1	1	0	0	511	510	508	476	28	38	
7	1	1	0	0	510	509	508	475	28	38	
8	1	1	0	0	509	509	509	476	28	38	
9	1	1	0	0	507	510	509	476	28	38	
10	1	1	0	0	510	511	509	476	28	38	
11	1	1	0	0	513	513	509	476	28	38	
12	1	1	0	0	510	517	508	476	28	38	
13	1	1	0	0	510	519	511	476	28	38	
14	1	1	0	0	510	520	507	475	28	38	
15	1	1	0	0	512	519	508	476	28	38	
0	1	1	0	0	510	517	510	476	28	38	
1	1	1	0	0	513	518	511	475	28	38	
2	1	1	0	0	511	509	511	476	28	38	
3	1	1	0	0	511	507	511	476	28	38	
4	1	1	0	0	510	511	508	475	28	38	
5	1	1	0	0	511	516	508	475	28	38	
6	1	1	0	0	510	520	509	475	27	38	
7	1	1	0	0	510	519	506	474	28	38	
8	1	1	0	0	511	512	507	475	28	38	
9	1	1	0	0	509	509	507	476	28	38	
10	1	1	0	0	508	508	504	476	28	38	
11	1	1	0	0	510	506	504	476	28	38	
12	1	1	0	0	510	508	505	475	28	38	
13	1	1	0	0	508	510	507	475	28	38	
14	1	1	0	0	505	509	509	475	27	38	
15	1	1	0	0	509	508	511	475	28	38	
0	1	1	0	0	511	507	511	476	28	38	
1	1	1	0	0	511	515	510	476	28	38	
2	1	1	0	0	508	513	506	476	28	38	
3	1	1	0	0	511	512	510	477	28	38	
4	1	1	0	0	512	511	507	476	28	38	
5	1	1	0	0	510	504	505	476	28	38	
6	1	1	0	0	508	504	505	477	28	38	
7	1	1	0	0	507	502	510	476	28	38	
8	1	1	0	0	508	509	511	477	28	38	
9	1	1	0	0	508	515	508	477	28	38	
10	1	1	0	0	510	520	509	477	28	38	
11	1	1	0	0	510	522	510	478	28	38	
12	1	1	0	0	507	520	510	478	28	38	
13	1	1	0	0	509	519	510	479	28	38	
14	1	1	0	0	511	521	512	479	28	38	
15	1	1	0	0	508	521	510	479	28	38	
0	1	1	0	0	511	518	512	479	28	38	
1	1	1	0	0	508	510	510	479	28	38	
2	1	1	0	0	511	513	509	481	28	38	
3	1	1	0	0	510	516	510	480	28	38	
4	1	1	0	0	512	517	509	480	28	38	
5	1	1	0	0	514	517	510	480	28	38	
6	1	1	0	0	512	512	511	480	28	38	
7	1	1	0	0	509	515	512	480	28	38	
8	1	1	0	0	511	519	508	481	28	38	
9	1	1	0	0	510	517	509	481	28	38	
10	1	1	0	0	511	516	508	483	29	38	
11	1	1	0	0	510	517	511	483	28	38	
12	1	1	0	0	509	517	511	483	28	38	
13	1	1	0	0	509	517	509	483	28	38	
14	1	1	0	0	508	516	510	483	28	38	
15	1	1	0	0	509	513	509	482	28	38	
0	1	1	0	0	511	516	509	483	28	38	
1	1	1	0	0	509	515	508	483	28	38	
2	1	1	0	0	508	511	508	483	29	38	
3	1	1	0	0	507	505	510	483	28	38	
4	1	1	0	0	508	505	510	483	28	38	
5	1	1	0	0	511	498	510	483	28	38	
6	1	1	0	0	511	503	508	483	28	38	
7	1	1	0	0	509	510	509	483	28	38	
8	1	1	0	0	511	509	510	484	28	38	
9	1	1	0	0	509	513	509	484	28	38	
10	1	1	0	0	508	515	507	484	29	38	
11	1	1	0	0	510	512	508	485	28	38	
12	1	1	0	0	508	504	507	484	28	38	
13	1	1	0	0	509	502	508	484	28	38	
14	1	1	0	0	509	510	509	484	28	38	
15	1	1	0	0	510	513	508	483	28	38	
0	1	1	0	0	510	515	509	484	28	38	
1	1	1	0	0	511	518	509	484	28	38	
2	1	1	0	0	511	520	508	485	29	38	
3	1	1	0	0	509	521	510	485	29	38	
4	1	1	0	0	509	521	509	485	29	38	
5	1	1	0	0	510	518	510	486	29	38	
6	1	1	0	0	512	518	510	486	28	38	
7	1	1	0	0	510	519	511	485	29	38	
8	1	1	0	0	511	512	510	485	29	38	
9	1	1	0	0	512	506	507	486	29	38	
10	1	1	0	0	509	511	509	486	29	38	
11	1	1	0	0	510	515	510	485	29	38	
12	1	1	0	0	511	516	507	485	29	38	
13	1	1	0	0	512	518	507	485	29	38	
14	1	1	0	0	508	519	509	486	28	38	
15	1	1	0	0	511	518	508	486	29	38	
0	1	1	0	0	510	517	508	486	29	38	
1	1	1	0	0	511	517	507	486	29	38	
2	1	1	0	0	511	515	508	486	29	38	
3	1	1	0	0	510	511	509	486	29	38	
4	1	1	0	0	508	509	507	486	29	38	
5	1	1	0	0	509	512	509	485	29	38	
6	1	1	0	0	509	511	508	485	28	38	
7	1	1	0	0	508	511	509	484	29	38	
8	1	1	0	0	511	512	507	485	29	38	
9	1	1	0	0	506	511	508	485	29	38	
10	1	1	0	0	510	510	511	485	29	38	
11	1	1	0	0	510	510	510	486	29	38	
12	1	1	0	0	507	511	511	485	29	38	
13	1	1	0	0	510	512	510	484	29	38	
14	1	1	0	0	511	512	509	485	29	38	
15	1	1	0	0	508	512	509	484	29	38	
0	1	1	0	0	511	515	511	485	29	38	
1	1	1	0	0	510	515	510	484	29	37	
2	1	1	0	0	510	514	507	484	29	38	
3	1	1	0	0	510	513	509	485	29	38	
4	1	1	0	0	510	515	511	484	29	38	
5	1	1	0	0	512	515	510	484	29	37	
6	1	1	0	0	511	515	511	485	28	37	
7	1	1	0	0	512	515	511	484	29	37	
8	1	1	0	0	510	514	508	485	29	37	
9	1	1	0	0	512	515	509	485	29	37	
10	1	1	0	0	511	514	508	485	29	37	
11	1	1	0	0	511	511	512	486	29	37	
12	1	1	0	0	509	511	510	484	29	37	
13	1	1	0	0	510	514	507	485	29	37	
14	1	1	0	0	507	513	510	484	29	37	
15	1	1	0	0	508	510	509	484	29	37	
0	1	1	0	0	508	510	508	484	29	37	
1	1	1	0	0	508	509	510	484	29	37	
2	1	1	0	0	511	513	508	485	29	37	
3	1	1	0	0	510	514	509	485	29	37	
4	1	1	0	0	510	515	510	485	29	37	
5	1	1	0	0	511	515	508	485	29	37	
6	1	1	0	0	511	515	507	485	28	37	
7	1	1	0	0	509	513	510	484	29	37	
8	1	1	0	0	512	515	511	484	29	37	
9	1	1	0	0	510	514	510	485	29	37	
10	1	1	0	0	510	516	506	485	29	37	
11	1	1	0	0	510	516	507	484	29	37	
12	1	1	0	0	512	515	505	484	29	37	
13	1	1	0	0	511	514	508	484	29	37	
14	1	1	0	0	509	512	507	484	28	37	
15	1	1	0	0	509	511	508	483	29	37	
0	1	1	0	0	506	513	506	484	29	37	
1	1	1	0	0	507	512	510	484	29	37	
2	1	1	0	0	508	516	508	485	29	37	
3	1	1	0	0	508	516	509	485	29	37	
4	1	1	0	0	507	515	507	484	29	37	
5	1	1	0	0	509	511	508	483	29	37	
6	1	1	0	0	509	508	510	483	29	37	
7	1	1	0	0	510	507	508	483	29	37	
8	1	1	0	0	511	507	508	483	29	37	
9	1	1	0	0	512	505	511	484	29	37	
10	1	1	0	0	510	511	510	484	29	37	
11	1	1	0	0	511	514	508	485	29	37	
12	1	1	0	0	511	513	511	485	29	37	
13	1	1	0	0	511	518	511	485	29	37	
14	1	1	0	0	513	518	508	485	29	37	
15	1	1	0	0	512	517	508	484	29	37	
0	1	1	0	0	512	515	509	486	29	37	
1	1	1	0	0	510	514	511	485	29	37	
2	1	1	0	0	508	514	509	485	29	37	
3	1	1	0	0	508	512	508	486	29	37	
4	1	1	0	0	510	513	511	485	29	37	
5	1	1	0	0	507	515	511	486	29	37	
6	1	1	0	0	509	515	511	486	29	37	
7	1	1	0	0	511	517	511	486	29	37	
8	1	1	0	0	509	517	512	487	29	37	
9	1	1	0	0	508	520	511	487	29	37	
10	1	1	0	0	509	522	511	487	29	37	
11	1	1	0	0	508	523	511	487	29	37	
12	1	1	0	0	507	524	509	487	29	37	
13	1	1	0	0	511	521	508	487	29	37	
14	1	1	0	0	510	508	506	487	29	37	
15	1	1	0	0	515	500	508	486	29	37	
0	1	1	0	0	515	502	507	487	29	37	
1	1	1	0	0	512	500	504	487	29	37	
2	1	1	0	0	508	507	506	487	29	37	
3	1	1	0	0	508	512	510	488	29	37	
4	1	1	0	0	508	509	508	487	29	37	
5	1	1	0	0	509	509	508	487	29	37	
6	1	1	0	0	508	502	509	487	29	37	
7	1	1	0	0	509	507	508	487	29	37	
8	1	1	0	0	510	508	510	487	29	37	
9	1	1	0	0	510	513	509	487	29	37	
10	1	1	0	0	510	518	510	488	29	37	
11	1	1	0	0	511	522	508	487	29	37	
12	1	1	0	0	508	517	507	487	29	37	
13	1	1	0	0	508	518	509	487	29	37	
14	1	1	0	0	506	519	510	488	29	37	
15	1	1	0	0	504	521	509	487	29	37	
0	1	1	0	0	508	524	508	488	29	37	
1	1	1	0	0	512	517	508	488	29	37	
2	1	1	0	0	514	512	509	488	29	37	
3	1	1	0	0	516	506	509	490	29	37	
4	1	1	0	0	514	505	511	490	29	37	
5	1	1	0	0	513	511	510	489	29	37	
6	1	1	0	0	512	512	508	489	29	37	
7	1	1	0	0	509	510	508	489	29	37	
8	1	1	0	0	509	507	508	490	29	37	
9	1	1	0	0	511	510	511	489	29	37	
10	1	1	0	0	508	511	510	491	29	37	
11	1	1	0	0	508	518	508	490	29	37	
12	1	1	0	0	510	520	508	490	29	37	
13	1	1	0	0	510	522	511	491	29	37	
14	1	1	0	0	508	519	511	491	29	37	
15	1	1	0	0	510	517	510	491	29	37	
0	1	1	0	0	511	512	511	491	29	37	
1	1	1	0	0	508	516	508	491	29	37	
2	1	1	0	0	508	515	508	491	29	38	
3	1	1	0	0	507	516	509	491	29	38	
4	1	1	0	0	510	515	511	490	29	37	
5	1	1	0	0	511	517	510	489	29	38	
6	1	1	0	0	509	518	509	490	29	38	
7	1	1	0	0	511	519	508	489	29	38	
8	1	1	0	0	510	516	509	490	29	38	
9	1	1	0	0	512	515	508	490	29	38	
10	1	1	0	0	511	514	508	490	29	38	
11	1	1	0	0	512	514	510	490	29	38	
12	1	1	0	0	511	512	508	490	29	38	
13	1	1	0	0	511	509	508	489	29	38	
14	1	1	0	0	510	513	506	489	29	38	
15	1	1	0	0	508	512	507	488	29	38	
0	1	1	0	0	510	511	508	488	29	38	
1	1	1	0	0	510	512	509	488	29	38	
2	1	1	0	0	509	508	511	489	29	38	
3	1	1	0	0	508	505	510	489	29	37	
4	1	1	0	0	509	511	508	488	29	37	
5	1	1	0	0	507	509	510	489	29	38	
6	1	1	0	0	511	511	507	488	29	37	
7	1	1	0	0	509	512	508	488	29	38	
8	1	1	0	0	509	512	509	489	29	38	
9	1	1	0	0	511	513	509	488	29	38	
10	1	1	0	0	510	516	507	487	29	38	
11	1	1	0	0	510	518	507	487	29	38	
12	1	1	0	0	511	516	510	487	29	38	
13	1	1	0	0	509	513	509	487	29	38	
14	1	1	0	0	511	515	511	487	29	38	
15	1	1	0	0	511	514	512	486	29	38	
0	1	1	0	0	511	514	511	487	29	37	
1	1	1	0	0	510	513	511	487	29	38	
2	1	1	0	0	510	511	509	487	29	37	
3	1	1	0	0	510	512	511	487	29	38	
4	1	1	0	0	509	511	509	486	29	38	
5	1	1	0	0	510	513	510	487	29	38	
6	1	1	0	0	509	514	508	485	28	38	
7	1	1	0	0	509	513	506	485	29	38	
8	1	1	0	0	512	511	509	485	29	38	
9	1	1	0	0	508	510	508	486	29	38	
10	1	1	0	0	510	510	508	486	29	37	
11	1	1	0	0	510	513	508	486	29	37	
12	1	1	0	0	509	514	508	485	29	37	
13	1	1	0	0	510	514	510	486	29	37	
14	1	1	0	0	511	516	509	485	28	37	
15	1	1	0	0	511	515	510	484	29	37	
0	1	1	0	0	511	515	510	485	29	37	
1	1	1	0	0	510	515	508	484	29	38	
2	1	1	0	0	510	516	508	484	29	38	
3	1	1	0	0	510	516	509	484	29	38	
4	1	1	0	0	510	516	508	483	29	38	
5	1	1	0	0	509	517	508	483	29	37	
6	1	1	0	0	508	515	509	484	28	37	
7	1	1	0	0	509	515	510	483	29	38	
8	1	1	0	0	508	517	507	484	29	38	
9	1	1	0	0	508	518	508	484	29	38	
10	1	1	0	0	509	517	509	484	29	38	
11	1	1	0	0	508	507	507	484	29	38	
12	1	1	0	0	507	506	509	484	29	38	
13	1	1	0	0	510	508	510	484	29	38	
14	1	1	0	0	509	513	510	483	28	38	
15	1	1	0	0	509	510	511	483	29	38	
0	1	1	0	0	511	504	507	483	29	38	
1	1	1	0	0	511	502	506	484	29	38	
2	1	1	0	0	509	510	509	484	29	38	
3	1	1	0	0	510	512	508	485	29	38	
4	1	1	0	0	512	518	508	484	29	38	
5	1	1	0	0	513	515	509	484	29	38	
6	1	1	0	0	513	513	509	483	28	38	
7	1	1	0	0	509	516	508	483	29	38	
8	1	1	0	0	509	516	508	484	29	38	
9	1	1	0	0	511	518	509	484	29	38	
10	1	1	0	0	507	515	509	484	29	38	
11	1	1	0	0	508	514	513	483	29	38	
12	1	1	0	0	508	513	512	484	29	38	
13	1	1	0	0	511	515	510	484	29	37	
14	1	1	0	0	511	515	509	484	28	38	
15	1	1	0	0	508	513	508	484	29	37	
0	1	1	0	0	509	514	508	484	29	37	
1	1	1	0	0	508	513	511	485	29	38	
2	1	1	0	0	511	514	510	485	29	38	
3	1	1	0	0	510	516	510	486	29	38	
4	1	1	0	0	511	517	510	485	29	38	
5	1	1	0	0	510	516	511	485	29	37	
6	1	1	0	0	511	519	508	485	29	38	
7	1	1	0	0	511	515	507	484	29	38	
8	1	1	0	0	511	516	509	485	29	37	
9	1	1	0	0	507	515	510	486	29	37	
10	1	1	0	0	511	516	510	486	29	37	
11	1	1	0	0	512	514	507	486	29	37	
12	1	1	0	0	511	512	505	486	29	37	
13	1	1	0	0	512	509	510	486	29	37	
14	1	1	0	0	512	510	509	486	29	38	
15	1	1	0	0	510	508	508	485	29	38	
0	1	1	0	0	509	511	508	486	29	37	
1	1	1	0	0	509	509	509	486	29	38	
2	1	1	0	0	511	512	509	485	29	38	
3	1	1	0	0	511	511	510	486	29	38	
4	1	1	0	0	509	509	511	486	29	37	
5	1	1	0	0	507	512	511	486	29	37	
6	1	1	0	0	508	514	509	487	29	37	
7	1	1	0	0	509	517	509	486	29	37	
8	1	1	0	0	511	510	509	487	29	37	
9	1	1	0	0	510	512	508	487	29	38	
10	1	1	0	0	512	512	510	487	29	38	
11	1	1	0	0	510	512	509	487	29	38	
12	1	1	0	0	511	512	510	486	29	38	
13	1	1	0	0	509	515	509	486	29	38	
14	1	1	0	0	509	515	508	486	29	38	
15	1	1	0	0	509	516	507	486	29	38	
0	1	1	0	0	511	515	508	487	29	38	
1	1	1	0	0	508	517	507	487	29	38	
2	1	1	0	0	511	514	511	487	29	38	
3	1	1	0	0	509	512	508	487	29	38	
4	1	1	0	0	508	512	511	487	29	38	
5	1	1	0	0	509	513	509	487	29	38	
6	1	1	0	0	510	514	509	486	29	38	
7	1	1	0	0	512	511	508	485	29	38	
8	1	1	0	0	511	508	509	486	29	38	
9	1	1	0	0	508	512	510	486	29	38	
10	1	1	0	0	509	513	510	487	29	38	
11	1	1	0	0	511	516	508	486	29	38	
12	1	1	0	0	510	523	507	486	29	38	
13	1	1	0	0	507	525	510	487	29	38	
14	1	1	0	0	508	526	510	487	29	38	
15	1	1	0	0	510	524	509	486	29	38	
0	1	1	0	0	512	520	510	487	29	38	
1	1	1	0	0	512	519	512	487	29	38	
2	1	1	0	0	514	510	510	487	29	38	
3	1	1	0	0	516	499	508	487	29	38	
4	1	1	0	0	511	497	505	486	29	38	
5	1	1	0	0	512	497	507	486	29	38	
6	1	1	0	0	509	496	507	486	29	38	
7	1	1	0	0	506	505	510	485	29	38	
8	1	1	0	0	506	511	509	486	29	38	
9	1	1	0	0	508	512	511	486	29	38	
10	1	1	0	0	507	514	509	487	29	38	
11	1	1	0	0	508	515	508	487	29	38	
12	1	1	0	0	509	515	509	486	29	38	
13	1	1	0	0	509	514	509	486	29	38	
14	1	1	0	0	509	513	510	486	29	38	
15	1	1	0	0	510	513	508	485	29	38	
0	1	1	0	0	511	514	508	486	29	38	
1	1	1	0	0	511	515	508	485	29	38	
2	1	1	0	0	512	516	510	485	29	38	
3	1	1	0	0	511	518	508	486	29	38	
4	1	1	0	0	511	520	510	485	29	38	
5	1	1	0	0	509	520	507	486	29	38	
6	1	1	0	0	512	517	509	486	29	38	
7	1	1	0	0	510	515	509	486	29	38	
8	1	1	0	0	510	514	511	486	29	38	
9	1	1	0	0	508	517	509	487	29	38	
10	1	1	0	0	509	516	511	487	29	38	
11	1	1	0	0	509	513	511	486	29	38	
12	1	1	0	0	508	513	509	486	29	38	
13	1	1	0	0	511	513	508	486	29	38	
14	1	1	0	0	508	512	512	485	29	38	
15	1	1	0	0	512	513	509	485	29	38	
0	1	1	0	0	512	513	509	486	29	38	
1	1	1	0	0	511	515	509	486	29	38	
2	1	1	0	0	512	519	506	487	29	37	
3	1	1	0	0	510	520	511	487	29	37	
4	1	1	0	0	511	521	508	487	29	37	
5	1	1	0	0	510	518	509	487	29	38	
6	1	1	0	0	509	515	507	486	29	38	
7	1	1	0	0	508	513	510	486	29	38	
8	1	1	0	0	509	506	507	487	29	38	
9	1	1	0	0	508	497	508	486	29	38	
10	1	1	0	0	508	506	509	486	29	38	
11	1	1	0	0	508	503	511	486	29	38	
12	1	1	0	0	508	507	510	487	29	38	
13	1	1	0	0	510	511	507	486	29	38	
14	1	1	0	0	511	511	509	487	28	38	
15	1	1	0	0	508	510	508	486	29	38	
0	1	1	0	0	511	513	508	487	29	37	
1	1	1	0	0	507	514	511	487	29	37	
2	1	1	0	0	510	514	510	487	29	38	
3	1	1	0	0	510	516	505	487	29	38	
4	1	1	0	0	510	515	508	487	29	38	
5	1	1	0	0	511	516	511	487	29	38	
6	1	1	0	0	513	515	508	487	28	38	
7	1	1	0	0	512	519	508	486	29	38	
8	1	1	0	0	511	515	509	486	29	38	
9	1	1	0	0	510	514	510	486	29	38	
10	1	1	0	0	509	519	508	487	29	37	
11	1	1	0	0	511	520	510	488	29	37	
12	1	1	0	0	511	513	510	487	29	37	
13	1	1	0	0	511	515	510	488	29	37	
14	1	1	0	0	512	517	511	488	28	37	
15	1	1	0	0	511	515	509	487	29	37	
0	1	1	0	0	511	515	507	487	29	37	
1	1	1	0	0	508	512	509	487	29	37	
2	1	1	0	0	508	513	508	488	29	37	
3	1	1	0	0	510	510	509	487	29	38	
4	1	1	0	0	510	512	508	487	29	38	
5	1	1	0	0	510	512	510	488	29	37	
6	1	1	0	0	510	510	509	487	28	37	
7	1	1	0	0	509	503	510	487	29	37	
8	1	1	0	0	509	507	508	487	29	37	
9	1	1	0	0	511	510	508	487	29	37	
10	1	1	0	0	510	510	508	488	29	37	
11	1	1	0	0	509	513	509	488	29	37	
12	1	1	0	0	509	513	510	487	29	37	
13	1	1	0	0	509	516	510	487	29	38	
14	1	1	0	0	510	517	510	487	29	38	
15	1	1	0	0	511	516	507	487	29	38	
0	1	1	0	0	510	515	508	487	29	38	
1	1	1	0	0	511	517	505	487	29	37	
2	1	1	0	0	510	515	507	487	29	37	
3	1	1	0	0	509	513	508	487	29	37	
4	1	1	0	0	512	514	512	488	29	37	
5	1	1	0	0	509	514	509	487	29	37	
6	1	1	0	0	509	512	511	488	29	38	
7	1	1	0	0	508	516	512	487	29	38	
8	1	1	0	0	508	515	511	487	29	38	
9	1	1	0	0	508	515	510	487	29	38	
10	1	1	0	0	510	515	508	488	29	38	
11	1	1	0	0	511	514	509	487	29	38	
12	1	1	0	0	511	511	512	487	29	38	
13	1	1	0	0	510	512	509	487	29	38	
14	1	1	0	0	510	509	509	487	29	38	
15	1	1	0	0	510	512	507	487	29	38	
0	1	1	0	0	508	514	509	487	29	38	
1	1	1	0	0	510	514	511	487	29	38	
2	1	1	0	0	509	514	508	487	29	38	
3	1	1	0	0	509	515	509	487	29	38	
4	1	1	0	0	511	514	508	487	29	38	
5	1	1	0	0	511	512	509	487	29	38	
6	1	1	0	0	511	511	507	486	28	38	
7	1	1	0	0	510	513	505	485	29	38	
8	1	1	0	0	508	511	510	486	29	38	
9	1	1	0	0	511	511	508	486	29	38	
10	1	1	0	0	508	513	507	487	29	38	
11	1	1	0	0	508	511	510	487	29	38	
12	1	1	0	0	507	513	509	486	29	38	
13	1	1	0	0	507	514	509	487	29	38	
14	1	1	0	0	508	518	511	486	29	38	
15	1	1	0	0	511	516	511	486	29	38	
0	1	1	0	0	512	514	509	486	29	38	
1	1	1	0	0	510	516	512	486	29	38	
2	1	1	0	0	509	516	509	486	29	38	
3	1	1	0	0	510	514	511	486	29	38	
4	1	1	0	0	510	509	509	487	29	38	
5	1	1	0	0	513	507	509	486	29	38	
6	1	1	0	0	513	514	508	486	28	38	
7	1	1	0	0	511	515	509	486	29	38	
8	1	1	0	0	511	513	508	486	29	38	
9	1	1	0	0	509	512	505	486	29	38	
10	1	1	0	0	510	513	507	486	29	38	
11	1	1	0	0	509	515	508	486	29	38	
12	1	1	0	0	509	514	510	486	29	38	
13	1	1	0	0	513	515	510	485	29	38	
14	1	1	0	0	510	515	508	485	28	38	
15	1	1	0	0	511	515	510	485	29	38	
0	1	1	0	0	511	516	508	485	29	38	
1	1	1	0	0	509	516	508	486	29	38	
2	1	1	0	0	506	519	509	486	29	38	
3	1	1	0	0	507	517	506	487	29	38	
4	1	1	0	0	508	516	509	486	29	38	
5	1	1	0	0	510	511	510	486	29	38	
6	1	1	0	0	512	506	509	486	29	38	
7	1	1	0	0	510	502	509	485	29	38	
8	1	1	0	0	509	503	510	486	29	38	
9	1	1	0	0	511	507	509	486	29	38	
10	1	1	0	0	511	509	510	486	29	38	
11	1	1	0	0	509	515	508	486	29	38	
12	1	1	0	0	508	518	510	486	29	38	
13	1	1	0	0	509	521	508	486	29	38	
14	1	1	0	0	510	522	511	486	29	38	
15	1	1	0	0	511	522	509	486	29	38	
0	1	1	0	0	512	519	510	487	29	38	
1	1	1	0	0	511	519	511	486	29	38	
2	1	1	0	0	511	518	508	486	29	38	
3	1	1	0	0	511	511	510	487	29	38	
4	1	1	0	0	510	506	509	486	29	38	
5	1	1	0	0	511	503	508	486	29	38	
6	1	1	0	0	510	500	508	486	29	38	
7	1	1	0	0	508	508	510	486	29	38	
8	1	1	0	0	507	508	511	486	29	38	
9	1	1	0	0	507	513	508	486	29	38	
10	1	1	0	0	510	513	508	487	29	38	
11	1	1	0	0	510	514	509	486	29	38	
12	1	1	0	0	512	517	509	486	29	38	
13	1	1	0	0	514	519	507	486	29	38	
14	1	1	0	0	513	522	506	485	29	38	
15	1	1	0	0	513	518	510	485	29	38	
0	1	1	0	0	512	516	508	486	29	38	
1	1	1	0	0	510	518	509	485	29	38	
2	1	1	0	0	508	515	510	486	29	38	
3	1	1	0	0	509	516	511	487	29	37	
4	1	1	0	0	509	515	511	487	29	38	
5	1	1	0	0	507	515	509	486	29	37	
6	1	1	0	0	508	515	508	486	29	37	
7	1	1	0	0	507	515	509	486	29	38	
8	1	1	0	0	510	514	508	486	29	38	
9	1	1	0	0	512	513	509	486	29	38	
10	1	1	0	0	509	511	506	486	29	38	
11	1	1	0	0	510	509	506	486	29	38	
12	1	1	0	0	510	504	508	485	29	38	
13	1	1	0	0	507	505	508	485	29	38	
14	1	1	0	0	508	511	506	486	28	38	
15	1	1	0	0	509	519	508	485	29	38	
0	1	1	0	0	507	519	510	486	29	37	
1	1	1	0	0	508	518	509	486	29	37	
2	1	1	0	0	510	515	508	487	29	38	
3	1	1	0	0	512	513	509	487	29	38	
4	1	1	0	0	511	512	510	486	29	38	
5	1	1	0	0	511	509	509	486	29	38	
6	1	1	0	0	512	509	509	486	29	38	
7	1	1	0	0	510	509	511	486	29	38	
8	1	1	0	0	511	509	509	486	29	38	
9	1	1	0	0	509	512	508	486	29	38	
10	1	1	0	0	508	513	507	487	29	38	
11	1	1	0	0	507	512	510	487	29	38	
12	1	1	0	0	507	512	509	487	29	38	
13	1	1	0	0	508	508	510	487	29	38	
14	1	1	0	0	508	510	511	487	29	38	
15	1	1	0	0	510	513	508	487	29	38	
0	1	1	0	0	510	515	511	487	29	38	
1	1	1	0	0	512	514	511	486	29	38	
2	1	1	0	0	511	517	510	487	29	38	
3	1	1	0	0	511	515	512	487	29	38	
4	1	1	0	0	510	513	508	487	29	38	
5	1	1	0	0	514	516	509	486	29	38	
6	1	1	0	0	510	518	510	487	29	38	
7	1	1	0	0	510	519	511	487	29	38	
8	1	1	0	0	509	518	512	487	29	38	
9	1	1	0	0	510	518	509	487	29	38	
10	1	1	0	0	511	518	507	487	29	38	
11	1	1	0	0	510	512	508	487	29	38	
12	1	1	0	0	510	511	509	487	29	38	
13	1	1	0	0	511	512	510	487	29	38	
14	1	1	0	0	508	513	510	486	29	38	
15	1	1	0	0	510	515	510	486	29	38	
0	1	1	0	0	507	516	508	487	29	38	
1	1	1	0	0	509	512	508	487	29	38	
2	1	1	0	0	508	510	509	487	29	38	
3	1	1	0	0	510	511	509	487	29	38	
4	1	1	0	0	509	510	508	487	29	38	
5	1	1	0	0	510	510	509	487	29	38	
6	1	1	0	0	511	509	509	488	29	38	
7	1	1	0	0	510	513	508	486	29	38	
8	1	1	0	0	511	513	508	487	29	38	
9	1	1	0	0	512	512	508	486	29	38	
10	1	1	0	0	511	511	509	487	29	38	
11	1	1	0	0	510	515	506	487	29	38	
12	1	1	0	0	510	515	509	486	29	38	
13	1	1	0	0	508	516	510	487	29	38	
14	1	1	0	0	510	517	510	487	29	38	
15	1	1	0	0	511	518	508	487	29	38	
0	1	1	0	0	512	519	512	487	29	38	
1	1	1	0	0	511	512	509	487	29	38	
2	1	1	0	0	509	507	511	487	29	38	
3	1	1	0	0	511	509	510	487	29	38	
4	1	1	0	0	510	510	512	487	29	38	
5	1	1	0	0	510	513	510	487	29	38	
6	1	1	0	0	511	510	507	487	29	38	
7	1	1	0	0	510	511	509	487	29	38	
8	1	1	0	0	508	512	507	487	29	38	
9	1	1	0	0	510	515	507	488	29	38	
10	1	1	0	0	509	514	508	488	29	38	
11	1	1	0	0	510	513	509	488	29	38	
12	1	1	0	0	510	513	508	488	29	38	
13	1	1	0	0	511	515	508	488	29	38	
14	1	1	0	0	511	516	510	488	29	38	
15	1	1	0	0	511	515	510	488	29	38	
0	1	1	0	0	510	515	509	488	29	38	
1	1	1	0	0	511	517	507	488	29	38	
2	1	1	0	0	509	518	509	487	29	38	
3	1	1	0	0	510	516	509	488	29	38	
4	1	1	0	0	508	517	509	488	29	38	
5	1	1	0	0	510	515	508	488	29	38	
6	1	1	0	0	509	515	511	488	29	38	
7	1	1	0	0	510	515	509	488	29	38	
8	1	1	0	0	511	510	510	488	29	38	
9	1	1	0	0	510	511	510	489	29	38	
10	1	1	0	0	508	512	508	489	29	38	
11	1	1	0	0	507	511	509	489	29	38	
12	1	1	0	0	510	509	509	488	29	38	
13	1	1	0	0	512	507	507	488	29	38	
14	1	1	0	0	511	505	507	488	29	38	
15	1	1	0	0	511	507	508	487	29	38	
0	1	1	0	0	509	511	509	488	29	38	
1	1	1	0	0	510	513	510	488	29	38	
2	1	1	0	0	506	513	510	489	29	38	
3	1	1	0	0	510	516	508	489	29	38	
4	1	1	0	0	509	519	509	488	29	38	
5	1	1	0	0	508	518	510	490	29	38	
6	1	1	0	0	511	517	509	489	29	38	
7	1	1	0	0	511	515	509	488	29	38	
8	1	1	0	0	512	514	511	488	29	38	
9	1	1	0	0	512	515	508	488	29	38	
10	1	1	0	0	510	513	509	489	29	38	
11	1	1	0	0	511	513	510	488	29	38	
12	1	1	0	0	507	510	510	488	29	38	
13	1	1	0	0	511	513	510	489	29	38	
14	1	1	0	0	509	515	511	488	29	38	
15	1	1	0	0	508	512	509	488	29	38	
0	1	1	0	0	509	509	509	489	29	38	
1	1	1	0	0	507	508	509	489	29	38	
2	1	1	0	0	508	512	509	489	29	38	
3	1	1	0	0	510	515	509	489	29	38	
4	1	1	0	0	510	512	508	488	29	38	
5	1	1	0	0	510	515	508	489	29	38	
6	1	1	0	0	510	514	509	487	29	38	
7	1	1	0	0	508	514	510	487	29	38	
8	1	1	0	0	510	518	510	487	29	38	
9	1	1	0	0	511	515	510	488	29	38	
10	1	1	0	0	510	516	509	488	29	38	
11	1	1	0	0	509	516	511	489	29	38	
12	1	1	0	0	510	515	510	489	29	38	
13	1	1	0	0	509	516	509	487	29	38	
14	1	1	0	0	509	515	509	488	29	38	
15	1	1	0	0	509	512	510	487	29	38	
0	1	1	0	0	510	511	509	488	29	38	
1	1	1	0	0	508	511	510	488	29	38	
2	1	1	0	0	510	511	510	487	29	38	
3	1	1	0	0	511	510	509	488	29	38	
4	1	1	0	0	509	515	507	487	29	38	
5	1	1	0	0	511	514	507	488	29	38	
6	1	1	0	0	511	511	508	487	29	38	
7	1	1	0	0	509	510	511	487	29	37	
8	1	1	0	0	510	511	509	487	29	37	
9	1	1	0	0	512	511	508	488	29	38	
10	1	1	0	0	510	512	507	487	29	38	
11	1	1	0	0	511	512	506	488	29	38	
12	1	1	0	0	510	515	510	487	29	38	
13	1	1	0	0	509	519	511	487	29	38	
14	1	1	0	0	508	515	512	487	29	38	
15	1	1	0	0	512	515	508	487	29	38	
0	1	1	0	0	510	513	508	488	29	38	
1	1	1	0	0	510	514	509	488	29	37	
2	1	1	0	0	511	513	511	487	29	37	
3	1	1	0	0	510	510	508	488	29	38	
4	1	1	0	0	510	508	509	487	29	38	
5	1	1	0	0	510	513	508	488	29	38	
6	1	1	0	0	510	513	510	487	29	38	
7	1	1	0	0	508	510	508	487	29	38	
8	1	1	0	0	508	508	507	487	29	38	
9	1	1	0	0	507	511	508	487	29	38	
10	1	1	0	0	511	514	510	487	29	38	
11	1	1	0	0	509	518	511	488	29	38	
12	1	1	0	0	510	522	510	487	29	38	
13	1	1	0	0	512	523	508	488	29	38	
14	1	1	0	0	511	522	510	487	29	38	
15	1	1	0	0	510	521	512	487	29	38	
0	1	1	0	0	511	517	510	487	29	38	
1	1	1	0	0	511	501	508	487	29	38	
2	1	1	0	0	513	507	509	487	29	38	
3	1	1	0	0	508	515	510	487	29	38	
4	1	1	0	0	507	515	511	487	29	38	
5	1	1	0	0	508	516	512	486	29	38	
6	1	1	0	0	512	518	509	487	29	38	
7	1	1	0	0	514	513	509	487	29	38	
8	1	1	0	0	515	508	509	487	29	38	
9	1	1	0	0	515	505	508	487	29	38	
10	1	1	0	0	509	507	508	487	29	38	
11	1	1	0	0	508	507	506	488	29	38	
12	1	1	0	0	509	507	509	487	29	38	
13	1	1	0	0	509	511	508	487	29	38	
14	1	1	0	0	510	510	508	487	29	38	
15	1	1	0	0	510	513	510	487	29	38	
0	1	1	0	0	511	515	510	487	29	38	
1	1	1	0	0	509	519	509	487	29	38	
2	1	1	0	0	511	519	508	487	29	38	
3	1	1	0	0	510	519	508	488	29	38	
4	1	1	0	0	510	519	509	487	29	38	
5	1	1	0	0	510	519	508	488	29	38	
6	1	1	0	0	510	518	508	488	29	38	
7	1	1	0	0	508	518	507	487	29	38	
8	1	1	0	0	509	513	510	488	29	38	
9	1	1	0	0	507	513	511	488	29	38	
10	1	1	0	0	507	513	510	489	29	38	
11	1	1	0	0	511	512	512	489	29	38	
12	1	1	0	0	510	513	509	488	29	38	
13	1	1	0	0	510	513	509	489	29	38	
14	1	1	0	0	511	514	510	489	29	38	
15	1	1	0	0	509	511	511	488	29	38	
0	1	1	0	0	510	511	511	489	29	38	
1	1	1	0	0	508	514	507	489	29	38	
2	1	1	0	0	511	511	510	490	29	38	
3	1	1	0	0	509	512	510	489	29	38	
4	1	1	0	0	508	512	510	489	29	38	
5	1	1	0	0	511	515	508	488	29	38	
6	1	1	0	0	510	512	509	488	29	38	
7	1	1	0	0	511	513	510	488	29	38	
8	1	1	0	0	511	514	508	488	29	38	
9	1	1	0	0	510	515	509	489	29	38	
10	1	1	0	0	509	514	511	489	29	38	
11	1	1	0	0	510	513	510	489	29	38	
12	1	1	0	0	509	514	508	489	29	38	
13	1	1	0	0	510	511	510	489	29	38	
14	1	1	0	0	510	515	510	489	29	38	
15	1	1	0	0	509	513	509	487	29	38	
0	1	1	0	0	509	517	507	488	29	38	
1	1	1	0	0	508	515	508	488	29	38	
2	1	1	0	0	508	511	508	488	29	38	
3	1	1	0	0	508	510	510	489	29	38	
4	1	1	0	0	510	511	509	488	29	38	
5	1	1	0	0	510	505	508	488	29	38	
6	1	1	0	0	510	505	509	489	29	38	
7	1	1	0	0	512	508	508	488	29	38	
8	1	1	0	0	511	511	507	489	29	38	
9	1	1	0	0	512	513	509	489	29	38	
10	1	1	0	0	510	520	507	489	29	38	
11	1	1	0	0	511	519	510	489	29	38	
12	1	1	0	0	509	515	509	487	29	38	
13	1	1	0	0	512	516	507	487	29	38	
14	1	1	0	0	512	516	507	488	29	38	
15	1	1	0	0	510	513	508	486	29	38	
0	1	1	0	0	510	514	510	487	29	38	
1	1	1	0	0	509	512	510	488	29	38	
2	1	1	0	0	510	511	509	488	29	37	
3	1	1	0	0	510	509	511	489	29	37	
4	1	1	0	0	508	512	508	488	29	37	
5	1	1	0	0	508	512	511	488	29	37	
6	1	1	0	0	512	515	508	488	29	38	
7	1	1	0	0	511	514	508	487	29	38	
8	1	1	0	0	510	514	508	487	29	38	
9	1	1	0	0	510	511	510	487	29	38	
10	1	1	0	0	509	511	510	487	29	38	
11	1	1	0	0	508	512	509	487	29	38	
12	1	1	0	0	511	514	508	487	29	38	
13	1	1	0	0	510	515	511	487	29	38	
14	1	1	0	0	509	516	508	487	29	38	
15	1	1	0	0	510	518	506	487	29	37	
0	1	1	0	0	510	516	508	487	29	37	
1	1	1	0	0	510	513	509	487	29	38	
2	1	1	0	0	509	512	507	487	29	38	
3	1	1	0	0	511	512	510	487	29	38	
4	1	1	0	0	509	516	509	487	29	38	
5	1	1	0	0	508	515	511	487	29	38	
6	1	1	0	0	507	515	511	487	29	38	
7	1	1	0	0	509	516	510	486	29	38	
8	1	1	0	0	512	513	510	487	29	38	
9	1	1	0	0	512	515	510	487	29	38	
10	1	1	0	0	511	517	510	487	29	37	
11	1	1	0	0	508	516	509	487	29	37	
12	1	1	0	0	510	511	510	487	29	37	
13	1	1	0	0	510	509	508	487	29	37	
14	1	1	0	0	510	508	510	488	29	38	
15	1	1	0	0	509	508	508	487	29	38	
0	1	1	0	0	511	505	507	487	29	38	
1	1	1	0	0	512	501	508	487	29	37	
2	1	1	0	0	510	510	509	487	29	38	
3	1	1	0	0	509	517	509	487	29	38	
4	1	1	0	0	510	522	509	487	29	38	
5	1	1	0	0	508	521	510	487	29	37	
6	1	1	0	0	509	515	510	487	29	38	
7	1	1	0	0	509	515	510	487	29	37	
8	1	1	0	0	511	514	510	488	29	37	
9	1	1	0	0	513	518	511	487	29	37	
10	1	1	0	0	511	516	508	488	29	37	
11	1	1	0	0	511	511	506	487	29	38	
12	1	1	0	0	508	512	507	487	29	38	
13	1	1	0	0	506	514	509	488	29	37	
14	1	1	0	0	507	516	509	487	29	38	
15	1	1	0	0	508	512	509	486	29	38	
0	1	1	0	0	510	508	508	487	29	38	
1	1	1	0	0	511	510	508	487	29	37	
2	1	1	0	0	509	511	511	488	29	38	
3	1	1	0	0	509	516	512	487	29	37	
4	1	1	0	0	511	516	509	487	29	37	
5	1	1	0	0	510	518	505	487	29	37	
6	1	1	0	0	510	516	508	487	29	37	
7	1	1	0	0	509	513	506	488	29	38	
8	1	1	0	0	511	513	508	488	29	38	
9	1	1	0	0	511	507	508	489	29	38	
10	1	1	0	0	510	507	510	489	29	38	
11	1	1	0	0	509	512	511	488	29	38	
12	1	1	0	0	508	515	512	488	29	38	
13	1	1	0	0	510	514	510	488	29	37	
14	1	1	0	0	511	513	508	488	29	37	
15	1	1	0	0	510	513	508	488	29	37	
0	1	1	0	0	509	515	508	489	29	37	
1	1	1	0	0	508	515	509	489	29	37	
2	1	1	0	0	510	515	510	489	29	37	
3	1	1	0	0	511	512	510	489	29	37	
4	1	1	0	0	510	513	509	489	29	38	
5	1	1	0	0	509	511	509	488	29	38	
6	1	1	0	0	510	511	510	489	29	38	
7	1	1	0	0	508	514	511	488	29	38	
8	1	1	0	0	508	515	509	488	29	38	
9	1	1	0	0	510	515	510	488	29	38	
10	1	1	0	0	510	516	509	489	29	38	
11	1	1	0	0	512	517	507	489	29	38	
12	1	1	0	0	510	518	509	489	29	37	
13	1	1	0	0	510	518	508	489	29	37	
14	1	1	0	0	511	515	509	489	29	38	
15	1	1	0	0	511	518	509	488	29	38	
0	1	1	0	0	510	517	508	490	29	38	
1	1	1	0	0	508	516	510	489	29	38	
2	1	1	0	0	510	515	510	488	29	38	
3	1	1	0	0	510	515	508	489	29	38	
4	1	1	0	0	509	514	507	489	29	38	
5	1	1	0	0	508	514	510	489	29	38	
6	1	1	0	0	510	510	511	489	29	38	
7	1	1	0	0	509	504	506	488	29	38	
8	1	1	0	0	508	510	508	488	29	38	
9	1	1	0	0	507	510	508	489	29	38	
10	1	1	0	0	511	508	510	489	29	38	
11	1	1	0	0	512	506	508	489	29	38	
12	1	1	0	0	509	507	505	489	29	38	
13	1	1	0	0	511	510	506	489	29	38	
14	1	1	0	0	510	513	508	489	29	38	
15	1	1	0	0	511	515	509	488	29	38	
0	1	1	0	0	510	516	509	488	29	38	
1	1	1	0	0	511	519	509	488	29	38	
2	1	1	0	0	511	519	510	489	29	38	
3	1	1	0	0	509	520	509	490	29	38	
4	1	1	0	0	510	518	510	489	29	38	
5	1	1	0	0	511	518	509	489	29	38	
6	1	1	0	0	509	514	512	489	29	38	
7	1	1	0	0	510	513	510	488	29	38	
8	1	1	0	0	512	512	510	489	29	38	
9	1	1	0	0	510	502	508	489	29	38	
10	1	1	0	0	511	507	510	489	29	38	
11	1	1	0	0	508	508	509	490	29	38	
12	1	1	0	0	510	511	510	489	29	38	
13	1	1	0	0	509	513	510	489	29	38	
14	1	1	0	0	508	518	510	489	29	38	
15	1	1	0	0	508	521	513	489	29	38	
0	1	1	0	0	508	519	512	489	29	38	
1	1	1	0	0	511	523	509	489	29	38	
2	1	1	0	0	514	519	509	490	29	38	
3	1	1	0	0	511	514	508	490	29	38	
4	1	1	0	0	513	510	507	490	29	38	
5	1	1	0	0	512	500	506	490	29	38	
6	1	1	0	0	510	500	507	490	29	38	
7	1	1	0	0	512	508	510	489	29	38	
8	1	1	0	0	509	505	511	489	29	38	
9	1	1	0	0	509	506	508	489	29	38	
10	1	1	0	0	508	511	509	489	29	38	
11	1	1	0	0	507	514	509	489	29	38	
12	1	1	0	0	508	515	510	489	29	38	
13	1	1	0	0	510	515	511	489	29	38	
14	1	1	0	0	510	516	509	489	29	38	
15	1	1	0	0	510	515	508	489	29	38	
0	1	1	0	0	508	515	510	489	29	38	
1	1	1	0	0	511	516	508	489	29	38	
2	1	1	0	0	508	516	509	490	29	38	
3	1	1	0	0	511	519	511	489	29	38	
4	1	1	0	0	511	515	510	489	29	38	
5	1	1	0	0	510	519	508	488	29	38	
6	1	1	0	0	511	513	506	488	29	38	
7	1	1	0	0	512	514	508	488	29	38	
8	1	1	0	0	510	516	507	488	29	38	
9	1	1	0	0	510	516	509	490	29	38	
10	1	1	0	0	509	515	510	489	29	38	
11	1	1	0	0	509	515	510	489	29	38	
12	1	1	0	0	508	515	510	490	29	38	
13	1	1	0	0	509	515	510	489	29	38	
14	1	1	0	0	510	512	508	490	29	38	
15	1	1	0	0	509	514	509	489	29	38	
0	1	1	0	0	509	512	508	489	29	38	
1	1	1	0	0	510	509	509	490	29	38	
2	1	1	0	0	508	511	507	490	29	38	
3	1	1	0	0	508	510	508	489	29	38	
4	1	1	0	0	509	511	509	489	29	38	
5	1	1	0	0	510	514	509	489	29	38	
6	1	1	0	0	508	514	511	490	29	38	
7	1	1	0	0	510	514	511	490	29	38	
8	1	1	0	0	509	512	511	489	29	38	
9	1	1	0	0	507	516	511	490	29	38	
10	1	1	0	0	512	513	510	490	29	38	
11	1	1	0	0	512	506	506	491	29	38	
12	1	1	0	0	511	511	507	489	29	38	
13	1	1	0	0	511	512	508	490	29	38	
14	1	1	0	0	513	510	510	489	29	38	
15	1	1	0	0	512	514	510	488	29	38	
0	1	1	0	0	509	519	512	489	29	38	
1	1	1	0	0	508	519	509	490	29	38	
2	1	1	0	0	508	520	510	490	29	38	
3	1	1	0	0	509	520	511	491	29	38	
4	1	1	0	0	509	519	510	489	29	38	
5	1	1	0	0	509	518	509	490	29	38	
6	1	1	0	0	507	514	511	489	29	38	
7	1	1	0	0	508	506	507	489	29	38	
8	1	1	0	0	511	507	507	489	29	38	
9	1	1	0	0	514	498	507	489	29	38	
10	1	1	0	0	515	497	505	489	29	38	
11	1	1	0	0	511	505	506	489	29	38	
12	1	1	0	0	509	512	508	489	29	38	
13	1	1	0	0	510	517	511	489	29	38	
14	1	1	0	0	508	519	508	489	28	38	
15	1	1	0	0	509	518	511	488	29	38	
0	1	1	0	0	513	515	511	489	29	38	
1	1	1	0	0	512	515	510	488	29	38	
2	1	1	0	0	508	517	506	488	29	38	
3	1	1	0	0	505	517	505	488	29	38	
4	1	1	0	0	508	511	506	487	29	38	
5	1	1	0	0	509	513	506	487	29	38	
6	1	1	0	0	508	514	507	487	29	38	
7	1	1	0	0	511	516	508	486	29	38	
8	1	1	0	0	511	514	509	487	29	38	
9	1	1	0	0	511	513	511	487	29	38	
10	1	1	0	0	508	513	513	487	29	38	
11	1	1	0	0	506	513	512	487	29	38	
12	1	1	0	0	510	514	507	486	29	38	
13	1	1	0	0	509	511	508	487	29	38	
14	1	1	0	0	512	513	506	486	29	38	
15	1	1	0	0	511	514	508	485	29	38	
0	1	1	0	0	511	515	509	485	29	38	
1	1	1	0	0	511	514	510	484	29	38	
2	1	1	0	0	509	512	508	484	29	38	
3	1	1	0	0	512	514	510	485	29	38	
4	1	1	0	0	510	514	511	485	29	38	
5	1	1	0	0	509	513	506	485	29	38	
6	1	1	0	0	510	510	508	485	29	38	
7	1	1	0	0	511	511	509	484	29	38	
8	1	1	0	0	513	513	510	485	29	38	
9	1	1	0	0	513	518	508	484	29	38	
10	1	1	0	0	511	515	510	485	29	38	
11	1	1	0	0	508	516	510	484	29	38	
12	1	1	0	0	508	513	511	483	29	38	
13	1	1	0	0	512	513	510	483	29	38	
14	1	1	0	0	512	511	509	483	29	38	
15	1	1	0	0	511	507	507	482	29	38	
0	1	1	0	0	508	506	509	483	29	38	
1	1	1	0	0	506	511	507	483	29	38	
2	1	1	0	0	509	511	508	483	29	38	
3	1	1	0	0	508	510	511	483	29	38	
4	1	1	0	0	510	512	511	483	29	38	
5	1	1	0	0	509	516	511	482	29	38	
6	1	1	0	0	510	515	509	482	29	38	
7	1	1	0	0	513	520	508	482	29	38	
8	1	1	0	0	511	518	509	481	29	38	
9	1	1	0	0	509	518	505	482	29	38	
10	1	1	0	0	509	516	507	482	29	38	
11	1	1	0	0	508	513	507	483	29	38	
12	1	1	0	0	508	512	510	482	29	38	
13	1	1	0	0	512	514	510	482	29	38	
14	1	1	0	0	510	512	509	482	29	38	
15	1	1	0	0	508	512	508	482	29	38	
0	1	1	0	0	507	511	509	482	29	38	
1	1	1	0	0	506	511	509	483	29	38	
2	1	1	0	0	511	513	507	482	29	38	
3	1	1	0	0	510	509	510	482	29	38	
4	1	1	0	0	507	512	511	481	29	38	
5	1	1	0	0	509	514	511	482	29	38	
6	1	1	0	0	509	512	509	483	28	38	
7	1	1	0	0	513	511	510	482	29	38	
8	1	1	0	0	511	515	508	483	29	38	
9	1	1	0	0	509	518	512	483	29	38	
10	1	1	0	0	509	516	510	482	29	38	
11	1	1	0	0	511	517	511	483	29	38	
12	1	1	0	0	512	515	510	483	29	38	
13	1	1	0	0	511	510	508	483	29	38	
14	1	1	0	0	509	516	508	483	29	38	
15	1	1	0	0	508	515	508	481	29	38	
0	1	1	0	0	511	514	508	483	29	38	
1	1	1	0	0	508	511	507	483	29	38	
2	1	1	0	0	511	514	507	483	29	38	
3	1	1	0	0	515	512	510	484	29	38	
4	1	1	0	0	511	512	507	483	29	38	
5	1	1	0	0	510	511	508	484	29	38	
6	1	1	0	0	512	512	510	483	28	38	
7	1	1	0	0	511	517	508	483	29	38	
8	1	1	0	0	511	520	509	484	29	38	
9	1	1	0	0	505	519	508	484	29	38	
10	1	1	0	0	506	517	510	484	29	38	
11	1	1	0	0	506	515	509	483	29	38	
12	1	1	0	0	510	512	507	483	29	38	
13	1	1	0	0	511	502	507	484	29	38	
14	1	1	0	0	510	499	509	484	29	38	
15	1	1	0	0	511	505	508	484	29	38	
0	1	1	0	0	508	508	508	484	29	38	
1	1	1	0	0	510	514	510	484	29	38	
2	1	1	0	0	510	519	509	486	29	38	
3	1	1	0	0	508	519	511	486	29	38	
4	1	1	0	0	508	521	511	485	29	38	
5	1	1	0	0	512	522	509	485	29	38	
6	1	1	0	0	513	521	510	485	28	38	
7	1	1	0	0	510	519	510	484	29	38	
8	1	1	0	0	509	518	510	485	29	38	
9	1	1	0	0	508	513	507	485	29	38	
10	1	1	0	0	511	505	508	486	29	38	
11	1	1	0	0	510	504	510	487	29	38	
12	1	1	0	0	508	510	508	486	29	38	
13	1	1	0	0	512	508	507	487	29	38	
14	1	1	0	0	513	503	507	487	29	38	
15	1	1	0	0	511	507	509	487	29	38	
0	1	1	0	0	510	512	511	486	29	38	
1	1	1	0	0	509	514	512	487	29	38	
2	1	1	0	0	510	510	511	487	29	38	
3	1	1	0	0	511	514	508	487	29	38	
4	1	1	0	0	510	518	509	487	29	38	
5	1	1	0	0	509	518	509	488	29	38	
6	1	1	0	0	511	520	509	488	29	38	
7	1	1	0	0	512	518	506	487	29	38	
8	1	1	0	0	511	519	507	489	29	38	
9	1	1	0	0	511	520	508	489	29	38	
10	1	1	0	0	510	517	508	489	29	38	
11	1	1	0	0	508	516	508	489	29	38	
12	1	1	0	0	508	515	510	488	29	38	
13	1	1	0	0	510	515	509	489	29	38	
