# OpenSignals Text File Format
# {"20:15:12:22:97:41": {"sensor": ["RAW", "RAW", "RAW", "RAW", "RAW", "RAW"], "device name": "20:15:12:22:97:41", "column": ["nSeq", "I1", "I2", "O1", "O2", "EMG1", "EMG2", "EMG3", "ACC1", "ACC2", "ACC3"], "sync interval": 2, "time": "21:56:46.836", "comments": "", "device connection": "BTH20:15:12:22:97:41", "channels": [1, 2, 3, 4, 5, 6], "date": "2017-4-26", "mode": 0, "digital IO": [0, 0, 1, 1], "firmware version": 1281, "device": "bitalino_rev", "position": 0, "sampling rate": 1000, "label": ["EMG1", "EMG2", "EMG3", "ACC1", "ACC2", "ACC3"], "resolution": [4, 1, 1, 1, 1, 10, 10, 10, 10, 6, 6], "special": [{}, {}, {}, {}, {}, {}]}}
# EndOfHeader
0	1	1	0	0	509	510	507	494	27	37	
1	1	1	0	0	509	510	509	494	27	37	
2	1	1	0	0	515	513	510	494	27	37	
3	1	1	0	0	523	518	508	494	27	37	
4	1	1	0	0	528	519	510	495	27	37	
5	1	1	0	0	527	521	510	494	27	37	
6	1	1	0	0	522	519	510	495	27	37	
7	1	1	0	0	518	519	511	495	27	37	
8	1	1	0	0	513	519	509	495	27	37	
9	1	1	0	0	505	513	509	495	27	37	
10	1	1	0	0	502	512	506	495	27	37	
11	1	1	0	0	504	513	510	495	27	37	
12	1	1	0	0	504	515	508	495	27	37	
13	1	1	0	0	505	515	510	496	27	37	
14	1	1	0	0	506	508	509	495	27	37	
15	1	1	0	0	508	510	509	496	27	37	
0	1	1	0	0	507	510	508	496	27	37	
1	1	1	0	0	508	507	509	495	27	37	
2	1	1	0	0	510	509	509	496	27	37	
3	1	1	0	0	508	513	510	496	27	37	
4	1	1	0	0	511	514	510	497	27	37	
5	1	1	0	0	508	513	510	497	27	37	
6	1	1	0	0	508	515	509	497	27	37	
7	1	1	0	0	510	518	509	498	27	37	
8	1	1	0	0	512	513	509	498	27	37	
9	1	1	0	0	509	512	507	498	27	37	
10	1	1	0	0	510	509	511	498	27	37	
11	1	1	0	0	509	508	508	497	27	37	
12	1	1	0	0	508	507	508	497	27	37	
13	1	1	0	0	507	513	510	497	27	37	
14	1	1	0	0	508	515	510	498	27	37	
15	1	1	0	0	507	515	510	499	27	37	
0	1	1	0	0	510	515	508	498	27	37	
1	1	1	0	0	508	514	507	498	27	37	
2	1	1	0	0	508	514	510	498	27	37	
3	1	1	0	0	509	511	508	497	27	37	
4	1	1	0	0	508	513	507	498	27	37	
5	1	1	0	0	512	510	506	498	27	37	
6	1	1	0	0	511	501	508	498	27	37	
7	1	1	0	0	510	504	509	497	27	37	
8	1	1	0	0	511	513	509	497	27	37	
9	1	1	0	0	511	515	511	497	27	37	
10	1	1	0	0	510	516	511	497	27	37	
11	1	1	0	0	511	516	510	496	27	37	
12	1	1	0	0	510	515	509	496	27	37	
13	1	1	0	0	511	518	510	496	27	37	
14	1	1	0	0	510	515	512	496	27	37	
15	1	1	0	0	507	515	509	496	27	37	
0	1	1	0	0	511	517	510	496	27	37	
1	1	1	0	0	509	517	509	496	27	37	
2	1	1	0	0	511	516	510	495	27	37	
3	1	1	0	0	511	514	510	495	27	37	
4	1	1	0	0	508	511	509	495	27	37	
5	1	1	0	0	508	510	509	495	27	37	
6	1	1	0	0	509	513	507	494	27	37	
7	1	1	0	0	508	516	509	494	27	37	
8	1	1	0	0	509	514	509	493	27	37	
9	1	1	0	0	508	515	508	492	27	37	
10	1	1	0	0	510	515	507	493	27	37	
11	1	1	0	0	513	515	510	493	27	37	
12	1	1	0	0	513	514	509	493	27	37	
13	1	1	0	0	514	507	510	493	27	37	
14	1	1	0	0	515	511	510	493	28	37	
15	1	1	0	0	514	510	511	494	27	37	
0	1	1	0	0	509	510	505	494	27	37	
1	1	1	0	0	505	510	509	493	27	37	
2	1	1	0	0	508	509	509	493	27	37	
3	1	1	0	0	511	511	510	492	27	37	
4	1	1	0	0	509	514	508	493	27	37	
5	1	1	0	0	509	511	507	492	27	37	
6	1	1	0	0	509	515	508	493	27	37	
7	1	1	0	0	511	515	507	493	27	37	
8	1	1	0	0	512	515	509	494	27	37	
9	1	1	0	0	510	517	508	494	27	37	
10	1	1	0	0	508	512	508	494	27	37	
11	1	1	0	0	508	511	510	493	27	37	
12	1	1	0	0	508	513	509	493	27	37	
13	1	1	0	0	507	513	509	495	27	37	
14	1	1	0	0	509	513	510	494	27	37	
15	1	1	0	0	508	514	511	495	27	37	
0	1	1	0	0	509	518	511	494	27	37	
1	1	1	0	0	508	519	508	494	27	37	
2	1	1	0	0	511	519	510	494	27	37	
3	1	1	0	0	511	516	506	493	27	37	
4	1	1	0	0	513	513	509	494	27	37	
5	1	1	0	0	515	508	510	495	27	37	
6	1	1	0	0	511	506	508	494	27	37	
7	1	1	0	0	512	502	509	496	27	37	
8	1	1	0	0	511	502	509	496	27	37	
9	1	1	0	0	509	508	508	496	27	37	
10	1	1	0	0	510	515	507	495	27	37	
11	1	1	0	0	509	518	509	494	27	37	
12	1	1	0	0	508	516	510	496	27	37	
13	1	1	0	0	506	513	512	495	27	37	
14	1	1	0	0	508	513	510	495	27	37	
15	1	1	0	0	508	516	509	495	27	37	
0	1	1	0	0	508	514	511	495	27	37	
1	1	1	0	0	507	517	510	496	27	37	
2	1	1	0	0	510	512	513	496	27	37	
3	1	1	0	0	508	513	510	495	27	37	
4	1	1	0	0	509	512	508	495	27	37	
5	1	1	0	0	509	511	508	496	27	37	
6	1	1	0	0	511	505	509	496	27	37	
7	1	1	0	0	510	511	508	496	27	37	
8	1	1	0	0	511	517	508	496	27	37	
9	1	1	0	0	508	519	509	496	27	37	
10	1	1	0	0	507	519	509	495	27	37	
11	1	1	0	0	509	518	507	495	27	37	
12	1	1	0	0	510	514	508	495	27	37	
13	1	1	0	0	506	513	507	496	27	37	
14	1	1	0	0	506	511	509	496	27	37	
15	1	1	0	0	506	503	508	496	27	37	
0	1	1	0	0	510	508	508	496	27	37	
1	1	1	0	0	510	517	510	496	27	37	
2	1	1	0	0	511	511	510	496	27	37	
3	1	1	0	0	512	510	509	496	27	37	
4	1	1	0	0	513	512	508	496	27	37	
5	1	1	0	0	512	508	507	495	27	37	
6	1	1	0	0	512	513	509	496	27	37	
7	1	1	0	0	508	510	509	496	27	37	
8	1	1	0	0	506	511	508	495	27	37	
9	1	1	0	0	510	513	508	495	27	37	
10	1	1	0	0	511	515	509	496	27	37	
11	1	1	0	0	514	514	511	495	27	37	
12	1	1	0	0	518	516	511	496	27	37	
13	1	1	0	0	519	519	511	496	27	37	
14	1	1	0	0	515	518	508	495	27	37	
15	1	1	0	0	511	518	509	496	27	37	
0	1	1	0	0	506	518	510	496	27	37	
1	1	1	0	0	505	517	510	496	27	37	
2	1	1	0	0	506	515	509	496	27	37	
3	1	1	0	0	504	513	509	495	27	37	
4	1	1	0	0	506	513	507	496	27	37	
5	1	1	0	0	509	511	508	495	27	37	
6	1	1	0	0	507	503	508	495	27	37	
7	1	1	0	0	513	508	513	495	27	37	
8	1	1	0	0	511	511	512	495	27	37	
9	1	1	0	0	511	510	508	496	27	37	
10	1	1	0	0	508	513	511	495	27	37	
11	1	1	0	0	509	512	508	495	27	37	
12	1	1	0	0	511	512	510	495	27	37	
13	1	1	0	0	509	514	508	495	27	37	
14	1	1	0	0	509	517	508	496	27	37	
15	1	1	0	0	508	514	507	496	27	37	
0	1	1	0	0	507	518	508	495	27	37	
1	1	1	0	0	509	514	510	495	27	37	
2	1	1	0	0	511	515	509	495	27	37	
3	1	1	0	0	509	515	508	494	27	37	
4	1	1	0	0	508	511	510	495	27	37	
5	1	1	0	0	506	515	508	495	27	37	
6	1	1	0	0	507	514	508	495	27	37	
7	1	1	0	0	507	509	505	495	27	37	
8	1	1	0	0	510	513	508	495	27	37	
9	1	1	0	0	508	515	511	495	27	37	
10	1	1	0	0	511	515	508	495	27	37	
11	1	1	0	0	508	516	508	495	27	37	
12	1	1	0	0	509	508	510	495	27	37	
13	1	1	0	0	508	504	509	496	27	37	
14	1	1	0	0	509	505	510	496	27	37	
15	1	1	0	0	511	508	506	495	27	37	
0	1	1	0	0	513	510	508	495	27	37	
1	1	1	0	0	514	512	509	495	27	37	
2	1	1	0	0	512	513	510	495	27	37	
3	1	1	0	0	511	515	511	494	27	37	
4	1	1	0	0	511	516	508	495	27	37	
5	1	1	0	0	512	517	510	495	27	37	
6	1	1	0	0	510	513	508	495	28	37	
7	1	1	0	0	508	510	509	496	27	37	
8	1	1	0	0	508	513	510	496	27	37	
9	1	1	0	0	507	513	508	495	27	37	
10	1	1	0	0	512	516	510	495	27	37	
11	1	1	0	0	511	514	508	494	27	37	
12	1	1	0	0	511	517	508	495	27	37	
13	1	1	0	0	511	518	509	495	27	37	
14	1	1	0	0	507	516	510	495	28	37	
15	1	1	0	0	507	512	509	496	27	37	
0	1	1	0	0	508	508	508	496	27	37	
1	1	1	0	0	511	505	511	496	27	37	
2	1	1	0	0	512	512	511	495	27	37	
3	1	1	0	0	512	511	510	495	27	37	
4	1	1	0	0	511	508	509	496	27	37	
5	1	1	0	0	510	508	506	496	27	37	
6	1	1	0	0	509	508	509	496	28	37	
7	1	1	0	0	508	513	508	496	27	37	
8	1	1	0	0	510	515	510	496	27	37	
9	1	1	0	0	508	515	510	495	27	37	
10	1	1	0	0	508	514	508	495	27	37	
11	1	1	0	0	508	514	509	495	27	37	
12	1	1	0	0	508	514	510	496	27	37	
13	1	1	0	0	508	514	506	496	27	37	
14	1	1	0	0	508	519	510	495	27	37	
15	1	1	0	0	508	517	508	496	27	37	
0	1	1	0	0	510	515	508	495	27	37	
1	1	1	0	0	508	516	507	495	27	37	
2	1	1	0	0	510	516	509	495	27	37	
3	1	1	0	0	510	515	508	495	27	37	
4	1	1	0	0	509	515	509	495	27	37	
5	1	1	0	0	513	512	509	495	27	37	
6	1	1	0	0	510	508	509	495	28	37	
7	1	1	0	0	511	510	509	495	27	37	
8	1	1	0	0	512	510	508	494	27	37	
9	1	1	0	0	512	508	509	494	27	37	
10	1	1	0	0	512	511	509	495	27	37	
11	1	1	0	0	508	512	509	494	27	37	
12	1	1	0	0	510	512	510	495	27	37	
13	1	1	0	0	512	513	510	495	27	37	
14	1	1	0	0	511	513	508	494	27	37	
15	1	1	0	0	510	515	510	496	27	37	
0	1	1	0	0	509	515	511	494	27	37	
1	1	1	0	0	508	514	509	495	27	37	
2	1	1	0	0	506	515	510	494	27	37	
3	1	1	0	0	507	515	510	493	27	37	
4	1	1	0	0	509	513	509	494	27	37	
5	1	1	0	0	511	513	509	494	27	37	
6	1	1	0	0	510	515	509	495	27	37	
7	1	1	0	0	510	515	509	495	27	37	
8	1	1	0	0	511	512	510	494	27	37	
9	1	1	0	0	512	510	507	494	27	37	
10	1	1	0	0	512	510	509	494	27	37	
11	1	1	0	0	511	513	510	494	27	37	
12	1	1	0	0	510	512	511	495	27	37	
13	1	1	0	0	508	510	510	494	27	37	
14	1	1	0	0	509	511	508	495	27	37	
15	1	1	0	0	511	518	509	495	27	37	
0	1	1	0	0	509	511	508	494	27	37	
1	1	1	0	0	510	510	507	495	27	37	
2	1	1	0	0	510	514	508	494	27	37	
3	1	1	0	0	510	514	510	494	27	37	
4	1	1	0	0	511	514	510	494	27	37	
5	1	1	0	0	510	513	509	494	27	37	
6	1	1	0	0	510	515	508	494	27	37	
7	1	1	0	0	508	512	510	495	27	37	
8	1	1	0	0	508	504	510	494	27	37	
9	1	1	0	0	507	509	510	495	27	37	
10	1	1	0	0	510	511	507	494	27	37	
11	1	1	0	0	510	514	509	494	27	37	
12	1	1	0	0	510	515	510	494	27	37	
13	1	1	0	0	510	513	508	495	27	37	
14	1	1	0	0	509	513	508	494	27	37	
15	1	1	0	0	509	513	508	495	27	37	
0	1	1	0	0	512	514	508	494	27	37	
1	1	1	0	0	510	516	510	495	27	37	
2	1	1	0	0	510	513	508	495	27	37	
3	1	1	0	0	508	515	511	494	27	37	
4	1	1	0	0	508	513	509	495	27	37	
5	1	1	0	0	509	515	512	495	27	37	
6	1	1	0	0	513	513	510	495	27	37	
7	1	1	0	0	511	512	509	495	27	37	
8	1	1	0	0	510	514	510	494	27	37	
9	1	1	0	0	510	511	510	494	27	37	
10	1	1	0	0	511	512	508	494	27	37	
11	1	1	0	0	509	515	509	494	27	37	
12	1	1	0	0	505	517	510	493	27	37	
13	1	1	0	0	506	515	509	494	27	37	
14	1	1	0	0	506	515	508	494	27	37	
15	1	1	0	0	508	515	508	494	27	37	
0	1	1	0	0	505	515	509	494	27	37	
1	1	1	0	0	508	519	508	494	27	37	
2	1	1	0	0	513	509	508	494	27	37	
3	1	1	0	0	514	504	509	494	27	37	
4	1	1	0	0	517	508	507	495	27	37	
5	1	1	0	0	520	513	510	494	27	37	
6	1	1	0	0	519	515	511	494	27	37	
7	1	1	0	0	518	513	509	494	27	37	
8	1	1	0	0	514	512	509	493	27	37	
9	1	1	0	0	511	512	508	493	27	37	
10	1	1	0	0	510	510	507	493	27	37	
11	1	1	0	0	508	511	508	494	27	37	
12	1	1	0	0	507	515	510	494	27	37	
13	1	1	0	0	508	515	509	494	27	37	
14	1	1	0	0	508	511	509	495	27	37	
15	1	1	0	0	505	513	510	495	27	37	
0	1	1	0	0	505	515	510	495	27	37	
1	1	1	0	0	507	515	510	495	27	37	
2	1	1	0	0	510	514	509	495	27	37	
3	1	1	0	0	510	513	508	494	27	37	
4	1	1	0	0	507	512	507	494	27	37	
5	1	1	0	0	507	512	509	494	27	37	
6	1	1	0	0	507	515	508	494	27	37	
7	1	1	0	0	509	516	509	494	27	37	
8	1	1	0	0	509	516	510	494	27	37	
9	1	1	0	0	509	515	508	494	27	37	
10	1	1	0	0	507	516	508	495	27	37	
11	1	1	0	0	512	514	510	494	27	37	
12	1	1	0	0	511	515	508	495	27	37	
13	1	1	0	0	509	507	509	495	27	37	
14	1	1	0	0	513	508	510	495	27	37	
15	1	1	0	0	508	505	511	495	27	37	
0	1	1	0	0	509	505	509	495	27	37	
1	1	1	0	0	512	508	509	495	27	37	
2	1	1	0	0	513	513	509	495	27	37	
3	1	1	0	0	509	511	511	493	27	37	
4	1	1	0	0	509	514	510	494	27	37	
5	1	1	0	0	508	515	510	494	27	37	
6	1	1	0	0	508	511	509	494	27	37	
7	1	1	0	0	503	511	511	495	27	37	
8	1	1	0	0	507	512	508	494	27	37	
9	1	1	0	0	511	513	510	494	27	37	
10	1	1	0	0	510	514	507	495	27	37	
11	1	1	0	0	511	513	508	494	27	37	
12	1	1	0	0	513	515	506	494	27	37	
13	1	1	0	0	514	515	504	494	27	37	
14	1	1	0	0	511	517	509	494	27	37	
15	1	1	0	0	512	515	509	494	27	37	
0	1	1	0	0	512	515	511	494	27	37	
1	1	1	0	0	511	516	512	493	27	37	
2	1	1	0	0	508	515	509	493	27	37	
3	1	1	0	0	509	517	510	494	27	37	
4	1	1	0	0	508	516	510	494	27	37	
5	1	1	0	0	511	512	508	494	27	37	
6	1	1	0	0	510	512	508	494	27	37	
7	1	1	0	0	509	511	506	495	27	37	
8	1	1	0	0	511	506	508	494	27	37	
9	1	1	0	0	508	504	510	495	27	37	
10	1	1	0	0	511	510	511	495	27	37	
11	1	1	0	0	510	515	510	494	27	37	
12	1	1	0	0	511	515	510	494	27	37	
13	1	1	0	0	510	519	508	494	27	37	
14	1	1	0	0	509	517	511	494	27	37	
15	1	1	0	0	510	518	511	494	27	37	
0	1	1	0	0	509	515	512	494	27	37	
1	1	1	0	0	510	512	509	495	27	37	
2	1	1	0	0	511	509	511	495	27	37	
3	1	1	0	0	511	510	508	494	27	37	
4	1	1	0	0	510	512	510	495	27	37	
5	1	1	0	0	512	514	508	495	27	37	
6	1	1	0	0	509	511	510	495	27	37	
7	1	1	0	0	508	514	510	496	27	37	
8	1	1	0	0	508	512	509	495	27	37	
9	1	1	0	0	507	510	508	495	27	37	
10	1	1	0	0	507	511	508	494	27	37	
11	1	1	0	0	507	512	509	494	27	37	
12	1	1	0	0	508	514	508	494	27	37	
13	1	1	0	0	513	515	509	495	27	37	
14	1	1	0	0	510	513	508	495	27	37	
15	1	1	0	0	513	511	509	495	27	37	
0	1	1	0	0	511	515	508	495	27	37	
1	1	1	0	0	510	520	510	494	27	37	
2	1	1	0	0	510	518	508	495	27	37	
3	1	1	0	0	511	515	508	495	27	37	
4	1	1	0	0	511	511	510	495	27	37	
5	1	1	0	0	508	515	509	495	27	37	
6	1	1	0	0	510	514	510	495	27	37	
7	1	1	0	0	511	512	512	495	27	37	
8	1	1	0	0	508	508	510	495	27	37	
9	1	1	0	0	509	505	509	494	27	37	
10	1	1	0	0	510	504	508	494	27	37	
11	1	1	0	0	510	508	509	495	27	37	
12	1	1	0	0	511	512	510	495	27	37	
13	1	1	0	0	512	516	508	495	27	37	
14	1	1	0	0	512	517	508	495	27	37	
15	1	1	0	0	509	511	509	496	27	37	
0	1	1	0	0	508	514	508	495	27	37	
1	1	1	0	0	509	514	510	495	27	37	
2	1	1	0	0	509	515	507	495	27	37	
3	1	1	0	0	509	515	509	495	27	37	
4	1	1	0	0	508	521	510	494	27	37	
5	1	1	0	0	509	520	510	495	27	37	
6	1	1	0	0	507	519	511	495	27	37	
7	1	1	0	0	508	518	509	495	27	37	
8	1	1	0	0	510	515	510	494	27	37	
9	1	1	0	0	510	512	508	494	27	37	
10	1	1	0	0	512	506	509	495	27	37	
11	1	1	0	0	513	497	509	494	27	37	
12	1	1	0	0	512	502	508	495	27	37	
13	1	1	0	0	515	512	509	495	27	37	
14	1	1	0	0	514	515	510	495	28	37	
15	1	1	0	0	511	517	509	495	27	37	
0	1	1	0	0	508	515	511	495	27	37	
1	1	1	0	0	504	513	507	495	27	37	
2	1	1	0	0	508	514	511	495	27	37	
3	1	1	0	0	506	515	510	493	27	37	
4	1	1	0	0	505	512	506	494	27	37	
5	1	1	0	0	507	510	508	494	27	37	
6	1	1	0	0	508	508	509	495	27	37	
7	1	1	0	0	509	515	511	495	27	37	
8	1	1	0	0	511	518	512	495	27	37	
9	1	1	0	0	511	514	510	495	27	37	
10	1	1	0	0	512	514	508	494	27	37	
11	1	1	0	0	511	514	508	494	27	37	
12	1	1	0	0	511	516	507	496	27	37	
13	1	1	0	0	509	511	506	495	27	37	
14	1	1	0	0	510	511	509	495	27	37	
15	1	1	0	0	510	513	508	495	27	37	
0	1	1	0	0	512	515	509	495	27	37	
1	1	1	0	0	511	514	507	495	27	37	
2	1	1	0	0	508	512	510	494	27	37	
3	1	1	0	0	510	514	509	494	27	37	
4	1	1	0	0	511	518	511	495	27	37	
5	1	1	0	0	510	518	511	496	27	37	
6	1	1	0	0	508	515	509	496	27	37	
7	1	1	0	0	507	513	508	496	27	37	
8	1	1	0	0	507	513	509	496	27	37	
9	1	1	0	0	509	512	508	496	27	37	
10	1	1	0	0	508	510	508	495	27	37	
11	1	1	0	0	509	509	509	495	27	37	
12	1	1	0	0	508	507	509	495	27	37	
13	1	1	0	0	506	509	508	495	27	37	
14	1	1	0	0	509	514	509	495	27	37	
15	1	1	0	0	510	513	511	495	27	37	
0	1	1	0	0	510	515	510	494	27	37	
1	1	1	0	0	511	515	510	494	27	37	
2	1	1	0	0	513	512	509	495	27	37	
3	1	1	0	0	512	513	511	494	27	37	
4	1	1	0	0	512	513	508	494	27	37	
5	1	1	0	0	513	509	508	495	27	37	
6	1	1	0	0	510	510	508	494	27	37	
7	1	1	0	0	512	512	507	496	27	37	
8	1	1	0	0	510	508	510	495	27	37	
9	1	1	0	0	510	512	509	495	27	37	
10	1	1	0	0	511	516	510	495	27	37	
11	1	1	0	0	506	515	510	495	27	37	
12	1	1	0	0	508	514	511	494	27	37	
13	1	1	0	0	507	518	509	495	27	37	
14	1	1	0	0	509	518	509	495	27	37	
15	1	1	0	0	507	517	509	495	27	37	
0	1	1	0	0	508	517	509	495	27	37	
1	1	1	0	0	507	516	509	495	27	37	
2	1	1	0	0	508	514	510	495	27	37	
3	1	1	0	0	511	513	511	495	27	37	
4	1	1	0	0	512	510	509	495	27	37	
5	1	1	0	0	511	507	510	495	27	37	
6	1	1	0	0	512	508	509	495	28	37	
7	1	1	0	0	512	508	510	496	27	37	
8	1	1	0	0	512	512	507	495	27	37	
9	1	1	0	0	511	515	508	495	27	37	
10	1	1	0	0	511	516	510	494	27	37	
11	1	1	0	0	511	517	510	494	27	37	
12	1	1	0	0	510	514	509	495	27	37	
13	1	1	0	0	508	514	508	496	27	37	
14	1	1	0	0	513	515	509	496	27	37	
15	1	1	0	0	511	509	505	495	27	37	
0	1	1	0	0	511	508	509	496	27	37	
1	1	1	0	0	508	511	510	496	27	37	
2	1	1	0	0	509	517	508	496	27	37	
3	1	1	0	0	509	516	509	494	27	37	
4	1	1	0	0	510	516	509	495	27	37	
5	1	1	0	0	511	521	511	495	27	37	
6	1	1	0	0	510	522	509	495	28	37	
7	1	1	0	0	511	519	510	494	27	37	
8	1	1	0	0	513	516	511	495	27	37	
9	1	1	0	0	513	516	512	495	27	37	
10	1	1	0	0	511	506	509	495	27	37	
11	1	1	0	0	509	502	507	495	27	37	
12	1	1	0	0	510	497	507	495	27	37	
13	1	1	0	0	508	497	508	495	27	37	
14	1	1	0	0	508	506	507	495	27	37	
15	1	1	0	0	508	513	509	496	27	37	
0	1	1	0	0	508	511	510	496	27	37	
1	1	1	0	0	507	511	508	495	27	37	
2	1	1	0	0	507	515	511	495	27	37	
3	1	1	0	0	508	515	508	494	27	37	
4	1	1	0	0	508	517	509	495	27	37	
5	1	1	0	0	511	519	510	494	27	37	
6	1	1	0	0	509	523	509	495	27	37	
7	1	1	0	0	512	520	509	495	27	37	
8	1	1	0	0	510	520	508	495	27	37	
9	1	1	0	0	511	518	509	495	27	37	
10	1	1	0	0	510	512	511	495	27	37	
11	1	1	0	0	509	508	510	495	27	37	
12	1	1	0	0	510	500	509	495	27	37	
13	1	1	0	0	508	503	508	495	27	37	
14	1	1	0	0	511	511	510	496	27	37	
15	1	1	0	0	511	514	508	496	27	37	
0	1	1	0	0	512	514	510	496	27	37	
1	1	1	0	0	512	516	508	495	27	37	
2	1	1	0	0	511	515	508	494	27	37	
3	1	1	0	0	509	514	509	494	27	37	
4	1	1	0	0	509	515	511	495	27	37	
5	1	1	0	0	509	515	508	495	27	37	
6	1	1	0	0	509	515	508	495	27	37	
7	1	1	0	0	508	516	509	495	27	37	
8	1	1	0	0	509	516	510	495	27	37	
9	1	1	0	0	511	515	510	495	27	37	
10	1	1	0	0	507	512	509	496	27	37	
11	1	1	0	0	508	514	508	495	27	37	
12	1	1	0	0	511	509	510	495	27	37	
13	1	1	0	0	511	510	510	495	27	37	
14	1	1	0	0	509	514	509	495	28	37	
15	1	1	0	0	509	513	508	495	27	37	
0	1	1	0	0	513	514	508	494	27	37	
1	1	1	0	0	513	512	508	495	27	37	
2	1	1	0	0	511	511	509	495	27	37	
3	1	1	0	0	511	509	510	494	27	37	
4	1	1	0	0	512	515	509	495	27	37	
5	1	1	0	0	510	515	511	495	27	37	
6	1	1	0	0	509	516	510	495	27	37	
7	1	1	0	0	510	516	509	496	27	37	
8	1	1	0	0	507	512	511	495	27	37	
9	1	1	0	0	509	512	508	495	27	37	
10	1	1	0	0	510	514	510	495	27	37	
11	1	1	0	0	507	513	508	494	27	37	
12	1	1	0	0	507	512	510	495	27	37	
13	1	1	0	0	506	512	509	494	27	37	
14	1	1	0	0	508	509	508	495	27	37	
15	1	1	0	0	506	512	508	495	27	37	
0	1	1	0	0	508	512	508	495	27	37	
1	1	1	0	0	512	515	507	495	27	37	
2	1	1	0	0	509	511	508	495	27	37	
3	1	1	0	0	511	513	508	495	27	37	
4	1	1	0	0	512	513	510	496	27	37	
5	1	1	0	0	512	513	509	496	27	37	
6	1	1	0	0	512	511	509	496	28	37	
7	1	1	0	0	511	511	510	496	27	37	
8	1	1	0	0	511	513	511	495	27	37	
9	1	1	0	0	510	512	512	494	27	37	
10	1	1	0	0	510	515	507	494	27	37	
11	1	1	0	0	508	517	509	494	27	37	
12	1	1	0	0	508	517	508	496	27	37	
13	1	1	0	0	510	518	509	496	27	37	
14	1	1	0	0	508	517	510	496	27	37	
15	1	1	0	0	510	515	511	496	27	37	
0	1	1	0	0	509	512	510	496	27	37	
1	1	1	0	0	510	511	509	496	27	37	
2	1	1	0	0	511	505	510	496	27	37	
3	1	1	0	0	511	508	510	495	27	37	
4	1	1	0	0	508	505	507	495	27	37	
5	1	1	0	0	508	508	506	495	27	37	
6	1	1	0	0	510	511	509	495	28	37	
7	1	1	0	0	510	513	507	495	27	37	
8	1	1	0	0	509	515	508	495	27	37	
9	1	1	0	0	510	512	508	495	27	37	
10	1	1	0	0	510	511	509	495	27	37	
11	1	1	0	0	510	510	508	494	27	37	
12	1	1	0	0	510	511	510	495	27	37	
13	1	1	0	0	512	511	511	495	27	37	
14	1	1	0	0	511	515	510	495	28	37	
15	1	1	0	0	510	518	509	496	27	37	
0	1	1	0	0	508	515	510	495	27	37	
1	1	1	0	0	507	515	509	495	27	37	
2	1	1	0	0	509	515	510	495	27	37	
3	1	1	0	0	508	514	510	494	27	37	
4	1	1	0	0	511	514	509	494	27	37	
5	1	1	0	0	511	515	509	495	27	37	
6	1	1	0	0	508	514	509	496	27	37	
7	1	1	0	0	510	513	510	496	27	37	
8	1	1	0	0	509	514	509	495	27	37	
9	1	1	0	0	511	515	509	496	27	37	
10	1	1	0	0	511	514	510	496	27	37	
11	1	1	0	0	512	515	508	495	27	37	
12	1	1	0	0	513	512	508	495	27	37	
13	1	1	0	0	510	511	508	495	27	37	
14	1	1	0	0	511	512	510	494	28	37	
15	1	1	0	0	508	513	508	495	27	37	
0	1	1	0	0	508	513	508	494	27	37	
1	1	1	0	0	506	513	508	494	27	37	
2	1	1	0	0	506	515	508	494	27	37	
3	1	1	0	0	508	513	511	494	27	37	
4	1	1	0	0	508	516	509	495	27	37	
5	1	1	0	0	511	513	508	495	27	37	
6	1	1	0	0	513	508	509	494	28	37	
7	1	1	0	0	511	502	509	495	27	37	
8	1	1	0	0	511	504	509	495	27	37	
9	1	1	0	0	509	509	508	494	27	37	
10	1	1	0	0	506	512	508	495	27	37	
11	1	1	0	0	509	514	511	494	27	37	
12	1	1	0	0	510	515	509	494	27	37	
13	1	1	0	0	511	516	510	495	27	37	
14	1	1	0	0	510	516	508	494	27	37	
15	1	1	0	0	509	517	509	494	27	37	
0	1	1	0	0	509	517	509	494	27	37	
1	1	1	0	0	510	520	510	495	27	37	
2	1	1	0	0	511	518	510	494	27	37	
3	1	1	0	0	510	516	508	494	27	37	
4	1	1	0	0	512	517	508	495	27	37	
5	1	1	0	0	511	514	512	495	27	37	
6	1	1	0	0	514	510	511	494	27	37	
7	1	1	0	0	512	504	507	495	27	37	
8	1	1	0	0	510	507	508	494	27	37	
9	1	1	0	0	510	507	508	494	27	37	
10	1	1	0	0	508	507	508	494	27	37	
11	1	1	0	0	505	510	506	493	27	37	
12	1	1	0	0	507	509	508	495	27	37	
13	1	1	0	0	508	510	508	495	27	37	
14	1	1	0	0	507	509	510	495	27	37	
15	1	1	0	0	509	516	511	495	27	37	
0	1	1	0	0	510	517	509	495	27	37	
1	1	1	0	0	510	516	509	495	27	37	
2	1	1	0	0	513	518	510	496	27	37	
3	1	1	0	0	512	517	508	495	27	37	
4	1	1	0	0	512	517	508	495	27	37	
5	1	1	0	0	512	515	510	496	27	37	
6	1	1	0	0	510	515	508	496	27	37	
7	1	1	0	0	512	512	510	495	27	37	
8	1	1	0	0	509	510	509	494	27	37	
9	1	1	0	0	510	514	510	495	27	37	
10	1	1	0	0	511	514	508	496	27	37	
11	1	1	0	0	511	515	507	495	27	37	
12	1	1	0	0	509	516	509	496	27	37	
13	1	1	0	0	508	515	508	496	27	37	
14	1	1	0	0	508	512	510	496	27	37	
15	1	1	0	0	508	511	509	497	27	37	
0	1	1	0	0	508	508	508	496	27	37	
1	1	1	0	0	509	510	508	496	27	37	
2	1	1	0	0	510	512	508	496	27	37	
3	1	1	0	0	512	513	509	495	27	37	
4	1	1	0	0	509	513	508	495	27	37	
5	1	1	0	0	511	515	509	495	27	37	
6	1	1	0	0	509	510	511	496	27	37	
7	1	1	0	0	512	515	509	496	27	37	
8	1	1	0	0	511	514	510	496	27	37	
9	1	1	0	0	513	511	509	496	27	37	
10	1	1	0	0	508	515	510	496	27	37	
11	1	1	0	0	511	515	509	495	27	37	
12	1	1	0	0	509	512	509	496	27	37	
13	1	1	0	0	511	510	506	495	27	37	
14	1	1	0	0	509	509	510	495	27	37	
15	1	1	0	0	509	510	509	496	27	37	
0	1	1	0	0	508	511	509	494	27	37	
1	1	1	0	0	506	514	508	495	27	37	
2	1	1	0	0	511	517	510	494	27	37	
3	1	1	0	0	509	515	509	494	27	37	
4	1	1	0	0	511	513	510	495	27	37	
5	1	1	0	0	508	514	510	494	27	37	
6	1	1	0	0	510	514	509	495	27	37	
7	1	1	0	0	508	517	509	495	27	37	
8	1	1	0	0	513	516	509	495	27	37	
9	1	1	0	0	513	515	510	495	27	37	
10	1	1	0	0	511	515	510	495	27	37	
11	1	1	0	0	508	516	510	495	27	37	
12	1	1	0	0	509	516	507	494	27	37	
13	1	1	0	0	510	518	508	495	27	37	
14	1	1	0	0	508	518	510	495	27	37	
15	1	1	0	0	506	511	508	495	27	37	
0	1	1	0	0	508	511	510	494	27	37	
1	1	1	0	0	509	507	509	495	27	37	
2	1	1	0	0	509	502	508	495	27	37	
3	1	1	0	0	512	500	508	494	27	37	
4	1	1	0	0	513	511	508	495	27	37	
5	1	1	0	0	512	512	508	496	27	37	
6	1	1	0	0	508	513	508	496	27	37	
7	1	1	0	0	510	511	509	496	27	37	
8	1	1	0	0	510	513	510	496	27	37	
9	1	1	0	0	510	514	509	496	27	37	
10	1	1	0	0	512	514	510	496	27	37	
11	1	1	0	0	510	515	511	494	27	37	
12	1	1	0	0	510	513	510	496	27	37	
13	1	1	0	0	509	516	509	495	27	37	
14	1	1	0	0	507	519	511	496	27	37	
15	1	1	0	0	509	519	510	496	27	37	
0	1	1	0	0	510	520	510	496	27	37	
1	1	1	0	0	509	518	508	496	27	37	
2	1	1	0	0	511	518	508	497	27	37	
3	1	1	0	0	511	511	509	496	27	37	
4	1	1	0	0	513	500	505	496	27	37	
5	1	1	0	0	511	496	507	496	27	37	
6	1	1	0	0	510	502	506	495	27	37	
7	1	1	0	0	511	509	507	496	27	37	
8	1	1	0	0	509	514	508	495	27	37	
9	1	1	0	0	511	519	509	494	27	37	
10	1	1	0	0	511	519	510	495	27	37	
11	1	1	0	0	507	519	508	494	27	37	
12	1	1	0	0	507	516	509	495	27	37	
13	1	1	0	0	508	516	509	495	27	37	
14	1	1	0	0	508	512	508	495	27	37	
15	1	1	0	0	508	511	508	495	27	37	
0	1	1	0	0	512	512	509	495	27	37	
1	1	1	0	0	511	513	508	495	27	37	
2	1	1	0	0	511	512	508	495	27	37	
3	1	1	0	0	511	513	509	494	27	37	
4	1	1	0	0	510	515	510	494	27	37	
5	1	1	0	0	510	517	512	494	27	37	
6	1	1	0	0	509	515	510	494	27	37	
7	1	1	0	0	510	515	511	494	27	37	
8	1	1	0	0	510	515	511	494	27	37	
9	1	1	0	0	510	512	511	494	27	37	
10	1	1	0	0	509	508	508	494	27	37	
11	1	1	0	0	510	507	507	493	27	37	
12	1	1	0	0	509	511	508	495	27	37	
13	1	1	0	0	509	511	510	495	27	37	
14	1	1	0	0	509	513	509	495	27	37	
15	1	1	0	0	510	515	510	495	27	37	
0	1	1	0	0	512	512	509	494	27	37	
1	1	1	0	0	512	513	508	494	27	37	
2	1	1	0	0	512	510	509	494	27	37	
3	1	1	0	0	510	508	510	493	27	37	
4	1	1	0	0	511	512	510	494	27	37	
5	1	1	0	0	510	514	509	494	27	37	
6	1	1	0	0	510	514	509	494	27	37	
7	1	1	0	0	508	516	508	495	27	37	
8	1	1	0	0	509	518	510	494	27	37	
9	1	1	0	0	510	515	508	495	27	37	
10	1	1	0	0	511	515	510	494	27	37	
11	1	1	0	0	510	515	511	493	27	37	
12	1	1	0	0	511	512	508	494	27	37	
13	1	1	0	0	510	513	509	493	27	37	
14	1	1	0	0	511	512	511	494	27	37	
15	1	1	0	0	510	509	508	493	27	37	
0	1	1	0	0	508	511	509	494	27	37	
1	1	1	0	0	508	512	508	493	27	37	
2	1	1	0	0	510	513	506	494	27	37	
3	1	1	0	0	509	513	508	494	27	37	
4	1	1	0	0	510	513	509	494	27	37	
5	1	1	0	0	508	512	510	494	27	37	
6	1	1	0	0	508	513	510	495	27	37	
7	1	1	0	0	509	514	509	495	27	37	
8	1	1	0	0	511	514	508	494	27	37	
9	1	1	0	0	510	512	510	494	27	37	
10	1	1	0	0	509	513	509	495	27	37	
11	1	1	0	0	510	512	508	494	27	37	
12	1	1	0	0	510	514	510	494	27	37	
13	1	1	0	0	510	516	510	494	27	37	
14	1	1	0	0	509	514	508	494	27	37	
15	1	1	0	0	511	512	511	495	27	37	
0	1	1	0	0	512	512	508	495	27	37	
1	1	1	0	0	508	513	510	495	27	37	
2	1	1	0	0	510	515	511	495	27	37	
3	1	1	0	0	508	512	508	495	27	37	
4	1	1	0	0	507	511	509	495	27	37	
5	1	1	0	0	508	514	510	495	27	37	
6	1	1	0	0	509	516	508	495	28	37	
7	1	1	0	0	511	515	509	495	27	37	
8	1	1	0	0	512	513	510	494	27	37	
9	1	1	0	0	510	512	509	493	27	37	
10	1	1	0	0	511	514	510	494	27	37	
11	1	1	0	0	512	514	508	493	27	37	
12	1	1	0	0	512	515	506	494	27	37	
13	1	1	0	0	512	512	508	495	27	37	
14	1	1	0	0	507	510	509	495	28	37	
15	1	1	0	0	508	512	508	495	27	37	
0	1	1	0	0	510	514	509	495	27	37	
1	1	1	0	0	508	508	508	495	27	37	
2	1	1	0	0	507	507	510	495	27	37	
3	1	1	0	0	506	511	508	494	27	37	
4	1	1	0	0	506	512	508	495	27	37	
5	1	1	0	0	511	516	511	495	27	37	
6	1	1	0	0	509	516	510	494	28	37	
7	1	1	0	0	513	515	508	496	27	37	
8	1	1	0	0	513	510	507	495	27	37	
9	1	1	0	0	511	504	507	495	27	37	
10	1	1	0	0	511	507	508	495	27	37	
11	1	1	0	0	510	514	508	495	27	37	
12	1	1	0	0	511	515	509	495	27	37	
13	1	1	0	0	509	513	511	495	27	37	
14	1	1	0	0	509	516	511	496	28	37	
15	1	1	0	0	511	514	509	496	27	37	
0	1	1	0	0	509	512	508	495	27	37	
1	1	1	0	0	507	511	506	495	27	37	
2	1	1	0	0	509	513	509	495	27	37	
3	1	1	0	0	510	518	508	495	27	37	
4	1	1	0	0	507	519	508	496	27	37	
5	1	1	0	0	507	516	510	495	27	37	
6	1	1	0	0	509	518	509	495	27	37	
7	1	1	0	0	508	518	510	496	27	37	
8	1	1	0	0	511	516	508	496	27	37	
9	1	1	0	0	512	516	510	495	27	37	
10	1	1	0	0	518	510	509	495	27	37	
11	1	1	0	0	515	507	510	495	27	37	
12	1	1	0	0	513	512	510	496	27	37	
13	1	1	0	0	511	511	510	496	27	37	
14	1	1	0	0	508	508	510	495	28	37	
15	1	1	0	0	508	506	510	496	27	37	
0	1	1	0	0	510	510	508	495	27	37	
1	1	1	0	0	510	515	507	495	27	37	
2	1	1	0	0	512	518	507	495	27	37	
3	1	1	0	0	510	515	509	494	27	37	
4	1	1	0	0	509	516	511	495	27	37	
5	1	1	0	0	510	514	509	495	27	37	
6	1	1	0	0	508	514	509	496	28	37	
7	1	1	0	0	509	513	510	495	27	37	
8	1	1	0	0	510	514	509	495	27	37	
9	1	1	0	0	511	512	510	495	27	37	
10	1	1	0	0	510	514	511	495	27	37	
11	1	1	0	0	511	513	509	495	27	37	
12	1	1	0	0	509	513	509	496	27	37	
13	1	1	0	0	508	512	510	495	27	37	
14	1	1	0	0	508	510	508	495	27	37	
15	1	1	0	0	508	511	509	495	27	37	
0	1	1	0	0	507	510	509	494	27	37	
1	1	1	0	0	508	510	508	494	27	37	
2	1	1	0	0	509	512	509	494	27	37	
3	1	1	0	0	509	510	509	494	27	37	
4	1	1	0	0	510	512	508	494	27	37	
5	1	1	0	0	510	515	508	495	27	37	
6	1	1	0	0	508	514	508	495	27	37	
7	1	1	0	0	509	515	508	495	27	37	
8	1	1	0	0	511	512	510	495	27	37	
9	1	1	0	0	510	512	507	496	27	37	
10	1	1	0	0	508	514	511	496	27	37	
11	1	1	0	0	509	517	510	495	27	37	
12	1	1	0	0	510	515	510	495	27	37	
13	1	1	0	0	510	515	510	495	27	37	
14	1	1	0	0	509	516	509	495	27	37	
15	1	1	0	0	512	512	509	495	27	37	
0	1	1	0	0	514	515	507	495	27	37	
1	1	1	0	0	512	514	509	495	27	37	
2	1	1	0	0	513	516	510	495	27	37	
3	1	1	0	0	512	518	510	494	27	37	
4	1	1	0	0	511	518	510	496	27	37	
5	1	1	0	0	510	512	510	495	27	37	
6	1	1	0	0	509	512	509	496	27	37	
7	1	1	0	0	508	511	507	496	27	37	
8	1	1	0	0	508	505	509	496	27	37	
9	1	1	0	0	508	508	508	495	27	37	
10	1	1	0	0	511	511	508	496	27	37	
11	1	1	0	0	510	509	508	495	27	37	
12	1	1	0	0	508	509	511	495	27	37	
13	1	1	0	0	507	509	509	495	27	37	
14	1	1	0	0	508	512	510	495	27	37	
15	1	1	0	0	510	518	511	496	27	37	
0	1	1	0	0	513	513	507	495	27	37	
1	1	1	0	0	510	510	508	495	27	37	
2	1	1	0	0	511	511	509	495	27	37	
3	1	1	0	0	512	511	509	494	27	37	
4	1	1	0	0	512	514	511	495	27	37	
5	1	1	0	0	513	515	509	495	27	37	
6	1	1	0	0	510	513	508	496	27	37	
7	1	1	0	0	509	512	509	495	27	37	
8	1	1	0	0	510	515	510	495	27	37	
9	1	1	0	0	511	512	507	495	27	37	
10	1	1	0	0	510	515	510	494	27	37	
11	1	1	0	0	508	514	511	493	27	37	
12	1	1	0	0	509	519	507	494	27	37	
13	1	1	0	0	508	518	509	495	27	37	
14	1	1	0	0	510	516	511	495	27	37	
15	1	1	0	0	508	514	511	495	27	37	
0	1	1	0	0	509	512	508	495	27	37	
1	1	1	0	0	508	511	509	495	27	37	
2	1	1	0	0	510	512	506	495	27	37	
3	1	1	0	0	512	514	506	494	27	37	
4	1	1	0	0	514	510	508	495	27	37	
5	1	1	0	0	513	511	509	495	27	37	
6	1	1	0	0	513	506	509	495	27	37	
7	1	1	0	0	511	509	509	494	27	37	
8	1	1	0	0	508	514	509	494	27	37	
9	1	1	0	0	507	518	508	494	27	37	
10	1	1	0	0	508	518	509	494	27	37	
11	1	1	0	0	509	518	510	494	27	37	
12	1	1	0	0	508	514	511	494	27	37	
13	1	1	0	0	509	511	508	495	27	37	
14	1	1	0	0	508	514	510	494	28	37	
15	1	1	0	0	508	514	508	495	27	37	
0	1	1	0	0	509	513	508	495	27	37	
1	1	1	0	0	508	509	508	495	27	37	
2	1	1	0	0	508	510	508	495	27	37	
3	1	1	0	0	510	511	510	494	27	37	
4	1	1	0	0	509	511	509	494	27	37	
5	1	1	0	0	512	511	508	494	27	37	
6	1	1	0	0	511	512	508	494	27	37	
7	1	1	0	0	510	515	508	495	27	37	
8	1	1	0	0	514	513	511	494	27	37	
9	1	1	0	0	509	513	511	494	27	37	
10	1	1	0	0	511	514	508	494	27	37	
11	1	1	0	0	509	514	509	494	27	37	
12	1	1	0	0	511	514	510	495	27	37	
13	1	1	0	0	510	514	509	495	27	37	
14	1	1	0	0	508	512	511	495	27	37	
15	1	1	0	0	510	515	510	495	27	37	
0	1	1	0	0	507	515	510	494	27	37	
1	1	1	0	0	508	516	508	494	27	37	
2	1	1	0	0	510	514	510	494	27	37	
3	1	1	0	0	508	513	510	493	27	37	
4	1	1	0	0	511	514	510	495	27	37	
5	1	1	0	0	508	514	510	495	27	37	
6	1	1	0	0	511	515	507	495	27	37	
7	1	1	0	0	510	515	508	495	27	37	
8	1	1	0	0	511	518	508	495	27	37	
9	1	1	0	0	511	510	508	495	27	37	
10	1	1	0	0	511	507	508	495	27	37	
11	1	1	0	0	512	507	505	494	27	37	
12	1	1	0	0	511	507	510	494	27	37	
13	1	1	0	0	511	514	511	494	27	37	
14	1	1	0	0	511	510	509	494	27	37	
15	1	1	0	0	511	508	509	494	27	37	
0	1	1	0	0	511	513	510	494	27	37	
1	1	1	0	0	508	513	508	495	27	37	
2	1	1	0	0	509	512	509	494	27	37	
3	1	1	0	0	508	512	510	494	27	37	
4	1	1	0	0	509	514	510	495	27	37	
5	1	1	0	0	506	514	509	494	27	37	
6	1	1	0	0	507	515	507	494	27	37	
7	1	1	0	0	509	516	508	495	27	37	
8	1	1	0	0	508	518	506	494	27	37	
9	1	1	0	0	508	519	510	494	27	37	
10	1	1	0	0	510	515	508	494	27	37	
11	1	1	0	0	510	511	510	493	27	37	
12	1	1	0	0	510	513	510	494	27	37	
13	1	1	0	0	511	508	511	494	27	37	
14	1	1	0	0	511	508	509	495	27	37	
15	1	1	0	0	511	510	508	495	27	37	
0	1	1	0	0	508	510	509	495	27	37	
1	1	1	0	0	511	511	510	494	27	37	
2	1	1	0	0	509	509	509	495	27	37	
3	1	1	0	0	508	513	510	494	27	37	
4	1	1	0	0	508	518	507	495	27	37	
5	1	1	0	0	510	516	508	495	27	37	
6	1	1	0	0	510	515	508	495	27	37	
7	1	1	0	0	509	514	508	495	27	37	
8	1	1	0	0	511	513	508	494	27	37	
9	1	1	0	0	510	515	509	494	27	37	
10	1	1	0	0	508	513	509	494	27	37	
11	1	1	0	0	507	516	509	494	27	37	
12	1	1	0	0	511	519	511	496	27	37	
13	1	1	0	0	510	517	510	495	27	37	
14	1	1	0	0	507	514	509	495	27	37	
15	1	1	0	0	508	515	508	495	27	37	
0	1	1	0	0	508	518	512	495	27	37	
1	1	1	0	0	511	515	511	495	27	37	
2	1	1	0	0	513	511	511	495	27	37	
3	1	1	0	0	511	499	509	494	27	37	
4	1	1	0	0	511	499	509	494	27	37	
5	1	1	0	0	512	507	508	494	27	37	
6	1	1	0	0	510	512	508	494	27	37	
7	1	1	0	0	507	511	508	494	27	37	
8	1	1	0	0	507	514	510	494	27	37	
9	1	1	0	0	509	513	508	494	27	37	
10	1	1	0	0	509	512	508	494	27	37	
11	1	1	0	0	510	513	509	494	27	37	
12	1	1	0	0	508	513	507	494	27	37	
13	1	1	0	0	511	515	509	494	27	37	
14	1	1	0	0	510	516	509	495	27	37	
15	1	1	0	0	515	517	508	494	27	37	
0	1	1	0	0	514	515	509	494	27	37	
1	1	1	0	0	512	514	507	494	27	37	
2	1	1	0	0	511	513	509	493	27	37	
3	1	1	0	0	508	514	508	492	27	37	
4	1	1	0	0	510	513	508	494	27	37	
5	1	1	0	0	509	512	509	494	27	37	
6	1	1	0	0	508	515	508	494	27	37	
7	1	1	0	0	509	515	509	495	27	37	
8	1	1	0	0	512	514	510	494	27	37	
9	1	1	0	0	511	517	511	494	27	37	
10	1	1	0	0	508	515	510	494	27	37	
11	1	1	0	0	510	514	512	494	27	37	
12	1	1	0	0	509	512	509	495	27	37	
13	1	1	0	0	511	511	507	494	27	37	
14	1	1	0	0	510	513	510	494	27	37	
15	1	1	0	0	511	512	508	494	27	37	
0	1	1	0	0	509	512	507	494	27	37	
1	1	1	0	0	509	512	511	494	27	37	
2	1	1	0	0	506	512	508	494	27	37	
3	1	1	0	0	506	511	508	493	27	37	
4	1	1	0	0	506	510	510	494	27	37	
5	1	1	0	0	508	511	508	495	27	37	
6	1	1	0	0	508	507	508	494	27	37	
7	1	1	0	0	508	509	509	496	27	37	
8	1	1	0	0	509	513	508	495	27	37	
9	1	1	0	0	509	517	510	495	27	37	
10	1	1	0	0	512	515	508	495	27	37	
11	1	1	0	0	511	517	509	494	27	37	
12	1	1	0	0	511	516	509	494	27	37	
13	1	1	0	0	510	517	509	494	27	37	
14	1	1	0	0	514	518	509	495	27	37	
15	1	1	0	0	514	512	511	496	27	37	
0	1	1	0	0	512	512	512	496	27	37	
1	1	1	0	0	512	510	510	496	27	37	
2	1	1	0	0	511	514	509	496	27	37	
3	1	1	0	0	508	513	509	495	27	37	
4	1	1	0	0	510	515	509	496	27	37	
5	1	1	0	0	510	513	510	496	27	37	
6	1	1	0	0	507	509	508	496	28	37	
7	1	1	0	0	506	511	509	496	27	37	
8	1	1	0	0	507	505	508	496	27	37	
9	1	1	0	0	505	500	508	495	27	37	
10	1	1	0	0	509	507	508	495	27	37	
11	1	1	0	0	509	512	510	494	27	37	
12	1	1	0	0	512	515	509	495	27	37	
13	1	1	0	0	514	516	509	496	27	37	
14	1	1	0	0	511	515	509	496	27	37	
15	1	1	0	0	515	520	509	496	27	37	
0	1	1	0	0	515	519	508	495	27	37	
1	1	1	0	0	514	521	508	496	27	37	
2	1	1	0	0	509	519	512	496	27	37	
3	1	1	0	0	508	516	510	496	27	37	
4	1	1	0	0	508	513	507	496	27	37	
5	1	1	0	0	507	511	511	496	27	37	
6	1	1	0	0	505	504	508	495	27	37	
7	1	1	0	0	503	506	506	496	27	37	
8	1	1	0	0	500	508	508	496	27	37	
9	1	1	0	0	507	515	510	496	27	37	
10	1	1	0	0	516	518	513	496	27	37	
11	1	1	0	0	518	514	510	496	27	37	
12	1	1	0	0	513	512	508	497	27	37	
13	1	1	0	0	513	512	510	496	27	37	
14	1	1	0	0	514	510	510	496	27	37	
15	1	1	0	0	512	513	508	496	27	37	
0	1	1	0	0	511	515	511	496	27	37	
1	1	1	0	0	506	514	508	495	27	37	
2	1	1	0	0	508	513	508	495	27	37	
3	1	1	0	0	508	513	507	495	27	37	
4	1	1	0	0	508	513	509	495	27	37	
5	1	1	0	0	510	514	509	495	27	37	
6	1	1	0	0	511	515	510	496	27	37	
7	1	1	0	0	512	513	509	496	27	37	
8	1	1	0	0	512	511	507	496	27	37	
9	1	1	0	0	508	511	505	496	27	37	
10	1	1	0	0	508	513	508	495	27	37	
11	1	1	0	0	507	513	508	495	27	37	
12	1	1	0	0	508	513	511	496	27	37	
13	1	1	0	0	511	514	511	495	27	37	
14	1	1	0	0	510	517	508	495	27	37	
15	1	1	0	0	508	518	509	494	27	37	
0	1	1	0	0	509	516	509	494	27	37	
1	1	1	0	0	508	516	509	494	27	37	
2	1	1	0	0	511	513	510	495	27	37	
3	1	1	0	0	510	513	509	494	27	37	
4	1	1	0	0	510	508	508	495	27	37	
5	1	1	0	0	510	507	506	495	27	37	
6	1	1	0	0	513	512	507	495	28	37	
7	1	1	0	0	510	508	511	496	27	37	
8	1	1	0	0	506	513	508	495	27	37	
9	1	1	0	0	507	516	511	495	27	37	
10	1	1	0	0	510	515	512	494	27	37	
11	1	1	0	0	508	515	509	494	27	37	
12	1	1	0	0	508	515	510	495	27	37	
13	1	1	0	0	516	508	505	495	27	37	
14	1	1	0	0	512	502	508	495	27	37	
15	1	1	0	0	508	506	510	495	27	37	
0	1	1	0	0	510	512	511	495	27	37	
1	1	1	0	0	511	515	511	495	27	37	
2	1	1	0	0	513	516	513	495	27	37	
3	1	1	0	0	511	515	511	494	27	37	
4	1	1	0	0	510	515	507	496	27	37	
5	1	1	0	0	508	517	507	495	27	37	
6	1	1	0	0	508	516	509	495	28	37	
7	1	1	0	0	511	513	508	495	27	37	
8	1	1	0	0	508	507	506	495	27	37	
9	1	1	0	0	510	510	506	494	27	37	
10	1	1	0	0	511	512	507	494	27	37	
11	1	1	0	0	511	513	510	494	27	37	
12	1	1	0	0	510	513	509	495	27	37	
13	1	1	0	0	511	512	509	495	27	37	
14	1	1	0	0	508	512	510	495	28	37	
15	1	1	0	0	508	515	509	495	27	37	
0	1	1	0	0	510	515	507	495	27	37	
1	1	1	0	0	507	516	508	495	27	37	
2	1	1	0	0	510	515	511	495	27	37	
3	1	1	0	0	510	514	511	495	27	37	
4	1	1	0	0	512	513	509	494	27	37	
5	1	1	0	0	513	514	509	495	27	37	
6	1	1	0	0	513	514	510	494	28	37	
7	1	1	0	0	511	513	510	494	27	37	
8	1	1	0	0	511	512	510	495	27	37	
9	1	1	0	0	511	513	510	495	27	37	
10	1	1	0	0	508	513	508	494	27	37	
11	1	1	0	0	509	515	510	495	27	37	
12	1	1	0	0	509	513	509	495	27	37	
13	1	1	0	0	507	512	510	495	27	37	
14	1	1	0	0	510	515	510	495	28	37	
15	1	1	0	0	511	515	510	496	27	37	
0	1	1	0	0	510	513	509	495	27	37	
1	1	1	0	0	510	511	508	495	27	37	
2	1	1	0	0	509	509	508	495	27	37	
3	1	1	0	0	509	511	508	494	27	37	
4	1	1	0	0	512	514	508	495	27	37	
5	1	1	0	0	511	518	510	494	27	37	
6	1	1	0	0	509	515	508	495	28	37	
7	1	1	0	0	511	512	506	496	27	37	
8	1	1	0	0	511	513	509	495	27	37	
9	1	1	0	0	509	515	508	496	27	37	
10	1	1	0	0	508	515	509	495	27	37	
11	1	1	0	0	505	514	508	495	27	37	
12	1	1	0	0	508	512	508	495	27	37	
13	1	1	0	0	507	510	507	496	27	37	
14	1	1	0	0	510	511	508	495	28	37	
15	1	1	0	0	510	509	510	496	27	37	
0	1	1	0	0	511	501	507	495	27	37	
1	1	1	0	0	510	496	509	495	27	37	
2	1	1	0	0	509	502	509	495	27	37	
3	1	1	0	0	511	514	510	494	27	37	
4	1	1	0	0	513	518	509	495	27	37	
5	1	1	0	0	509	515	509	495	27	37	
6	1	1	0	0	512	518	507	495	28	37	
7	1	1	0	0	511	519	511	496	27	37	
8	1	1	0	0	509	515	510	495	27	37	
9	1	1	0	0	508	516	511	495	27	37	
10	1	1	0	0	509	515	510	494	27	37	
11	1	1	0	0	511	513	512	494	27	37	
12	1	1	0	0	510	513	511	494	27	37	
13	1	1	0	0	509	516	510	494	27	37	
14	1	1	0	0	507	516	511	493	27	37	
15	1	1	0	0	510	519	508	494	27	37	
0	1	1	0	0	511	519	508	494	27	37	
1	1	1	0	0	508	517	508	494	27	37	
2	1	1	0	0	507	515	510	494	27	37	
3	1	1	0	0	509	519	509	493	27	37	
4	1	1	0	0	508	517	507	494	27	37	
5	1	1	0	0	509	507	509	494	27	37	
6	1	1	0	0	510	496	509	494	27	37	
7	1	1	0	0	513	502	509	494	27	37	
8	1	1	0	0	515	514	509	493	27	37	
9	1	1	0	0	515	515	508	493	27	37	
10	1	1	0	0	513	512	507	493	27	37	
11	1	1	0	0	511	511	508	492	27	37	
12	1	1	0	0	511	515	508	493	27	37	
13	1	1	0	0	512	515	509	492	27	37	
14	1	1	0	0	510	514	511	492	27	37	
15	1	1	0	0	509	512	508	494	27	37	
0	1	1	0	0	508	509	510	492	27	37	
1	1	1	0	0	507	513	509	493	27	37	
2	1	1	0	0	509	513	508	493	27	37	
3	1	1	0	0	507	517	509	492	27	37	
4	1	1	0	0	508	516	509	493	27	37	
5	1	1	0	0	508	517	510	493	27	37	
6	1	1	0	0	510	514	509	492	28	37	
7	1	1	0	0	512	515	511	492	27	37	
8	1	1	0	0	511	517	508	491	27	37	
9	1	1	0	0	511	515	508	492	27	37	
10	1	1	0	0	511	516	508	492	27	37	
11	1	1	0	0	512	517	508	492	27	37	
12	1	1	0	0	512	514	508	492	27	37	
13	1	1	0	0	510	507	511	492	27	37	
14	1	1	0	0	510	507	508	492	28	37	
15	1	1	0	0	508	511	508	493	27	37	
0	1	1	0	0	509	513	508	493	27	37	
1	1	1	0	0	509	510	511	493	27	37	
2	1	1	0	0	511	511	510	492	27	37	
3	1	1	0	0	513	514	508	492	27	37	
4	1	1	0	0	512	515	507	492	27	37	
5	1	1	0	0	512	512	508	492	27	37	
6	1	1	0	0	508	513	510	492	27	37	
7	1	1	0	0	507	514	510	492	27	37	
8	1	1	0	0	507	513	509	493	27	37	
9	1	1	0	0	508	512	509	493	27	37	
10	1	1	0	0	510	513	510	492	27	37	
11	1	1	0	0	510	512	510	492	27	37	
12	1	1	0	0	504	513	509	492	27	37	
13	1	1	0	0	508	512	508	494	27	37	
14	1	1	0	0	508	515	508	494	28	37	
15	1	1	0	0	510	520	509	494	27	37	
0	1	1	0	0	508	523	508	493	27	37	
1	1	1	0	0	508	522	508	492	27	37	
2	1	1	0	0	506	518	508	493	27	37	
3	1	1	0	0	514	509	506	491	27	37	
4	1	1	0	0	516	501	505	492	27	37	
5	1	1	0	0	515	507	511	492	27	37	
6	1	1	0	0	509	508	510	493	27	37	
7	1	1	0	0	505	509	509	493	27	37	
8	1	1	0	0	505	512	508	493	27	37	
9	1	1	0	0	509	513	511	493	27	37	
10	1	1	0	0	511	513	511	493	27	37	
11	1	1	0	0	516	512	511	492	27	37	
12	1	1	0	0	514	509	514	493	27	37	
13	1	1	0	0	511	501	510	494	27	37	
14	1	1	0	0	505	499	505	494	27	37	
15	1	1	0	0	509	513	507	494	27	37	
0	1	1	0	0	509	515	508	494	27	37	
1	1	1	0	0	508	518	510	493	27	37	
2	1	1	0	0	511	515	507	494	27	37	
3	1	1	0	0	511	512	509	494	27	37	
4	1	1	0	0	508	512	509	494	27	37	
5	1	1	0	0	507	514	511	495	27	37	
6	1	1	0	0	508	516	510	495	27	37	
7	1	1	0	0	509	515	509	495	27	37	
8	1	1	0	0	511	515	507	495	27	37	
9	1	1	0	0	511	516	510	494	27	37	
10	1	1	0	0	511	517	508	495	27	37	
11	1	1	0	0	508	515	507	494	27	37	
12	1	1	0	0	508	517	510	494	27	37	
13	1	1	0	0	511	519	508	494	27	37	
14	1	1	0	0	511	512	507	494	27	37	
15	1	1	0	0	511	511	507	495	27	37	
0	1	1	0	0	514	508	508	495	27	37	
1	1	1	0	0	515	513	510	495	27	37	
2	1	1	0	0	510	514	510	494	27	37	
3	1	1	0	0	509	518	508	494	27	37	
4	1	1	0	0	510	515	508	494	27	37	
5	1	1	0	0	510	516	510	494	27	37	
6	1	1	0	0	509	512	509	494	28	37	
7	1	1	0	0	510	515	511	494	27	37	
8	1	1	0	0	511	515	510	493	27	37	
9	1	1	0	0	508	515	510	493	27	37	
10	1	1	0	0	510	511	509	494	27	37	
11	1	1	0	0	510	511	510	493	27	37	
12	1	1	0	0	509	512	507	493	27	37	
13	1	1	0	0	509	512	509	493	27	37	
14	1	1	0	0	507	512	507	493	28	37	
15	1	1	0	0	508	513	509	494	27	37	
0	1	1	0	0	511	513	508	493	27	37	
1	1	1	0	0	509	512	508	493	27	37	
2	1	1	0	0	509	510	510	493	27	37	
3	1	1	0	0	510	515	508	492	27	37	
4	1	1	0	0	511	516	509	492	27	37	
5	1	1	0	0	510	516	511	492	27	37	
6	1	1	0	0	511	514	511	492	28	37	
7	1	1	0	0	508	513	509	493	27	37	
8	1	1	0	0	509	514	510	492	27	37	
9	1	1	0	0	510	512	508	492	27	37	
10	1	1	0	0	510	513	509	493	27	37	
11	1	1	0	0	512	513	509	492	27	37	
12	1	1	0	0	512	510	510	492	27	37	
13	1	1	0	0	509	507	508	492	27	37	
14	1	1	0	0	507	509	508	493	28	37	
15	1	1	0	0	508	509	508	493	27	37	
0	1	1	0	0	509	510	508	492	27	37	
1	1	1	0	0	508	514	509	493	27	37	
2	1	1	0	0	509	514	510	492	27	37	
3	1	1	0	0	513	517	508	492	27	37	
4	1	1	0	0	511	515	510	492	27	37	
5	1	1	0	0	507	515	508	493	27	37	
6	1	1	0	0	511	516	510	492	27	37	
7	1	1	0	0	509	516	510	493	27	37	
8	1	1	0	0	511	515	509	492	27	37	
9	1	1	0	0	508	515	510	493	27	37	
10	1	1	0	0	509	514	508	493	27	37	
11	1	1	0	0	511	513	513	492	27	37	
12	1	1	0	0	510	509	512	492	27	37	
13	1	1	0	0	507	507	510	492	27	37	
14	1	1	0	0	508	508	505	492	27	37	
15	1	1	0	0	508	510	508	492	27	37	
0	1	1	0	0	512	512	506	491	27	37	
1	1	1	0	0	512	512	504	492	27	37	
2	1	1	0	0	511	514	504	492	27	37	
3	1	1	0	0	512	515	508	492	27	37	
4	1	1	0	0	511	514	510	492	27	37	
5	1	1	0	0	511	514	509	492	27	37	
6	1	1	0	0	510	516	511	492	27	37	
7	1	1	0	0	512	516	509	492	27	37	
8	1	1	0	0	512	513	508	492	27	37	
9	1	1	0	0	509	512	511	492	27	37	
10	1	1	0	0	505	514	512	491	27	37	
11	1	1	0	0	505	512	511	491	27	37	
12	1	1	0	0	507	511	510	491	27	37	
13	1	1	0	0	503	517	509	491	27	37	
14	1	1	0	0	507	517	509	492	27	37	
15	1	1	0	0	508	516	509	492	27	37	
0	1	1	0	0	511	517	510	491	27	37	
1	1	1	0	0	512	513	511	492	27	37	
2	1	1	0	0	514	508	511	492	27	37	
3	1	1	0	0	515	507	510	491	27	37	
4	1	1	0	0	515	504	508	492	27	37	
5	1	1	0	0	515	507	508	492	27	37	
6	1	1	0	0	511	513	508	492	28	37	
7	1	1	0	0	511	512	508	492	27	37	
8	1	1	0	0	509	513	510	491	27	37	
9	1	1	0	0	509	517	507	491	27	37	
10	1	1	0	0	508	518	508	492	27	37	
11	1	1	0	0	509	518	509	492	27	37	
12	1	1	0	0	508	520	506	492	27	37	
13	1	1	0	0	507	517	509	493	27	37	
14	1	1	0	0	507	516	509	492	28	37	
15	1	1	0	0	509	507	506	492	27	37	
0	1	1	0	0	507	505	509	492	27	37	
1	1	1	0	0	507	504	508	493	27	37	
2	1	1	0	0	512	509	509	493	27	37	
3	1	1	0	0	513	508	509	492	27	37	
4	1	1	0	0	512	509	510	493	27	37	
5	1	1	0	0	511	511	507	492	27	37	
6	1	1	0	0	508	514	507	492	27	37	
7	1	1	0	0	509	516	508	493	27	37	
8	1	1	0	0	510	519	511	493	27	37	
9	1	1	0	0	508	518	512	493	27	37	
10	1	1	0	0	509	521	510	493	27	37	
11	1	1	0	0	507	519	511	492	27	37	
12	1	1	0	0	505	515	511	494	27	37	
13	1	1	0	0	506	513	508	494	27	37	
14	1	1	0	0	514	514	507	493	27	37	
15	1	1	0	0	518	511	508	493	27	37	
0	1	1	0	0	512	500	507	493	27	37	
1	1	1	0	0	508	506	508	493	27	37	
2	1	1	0	0	511	508	509	492	27	37	
3	1	1	0	0	510	510	508	492	27	37	
4	1	1	0	0	508	512	509	493	27	37	
5	1	1	0	0	510	513	509	493	27	37	
6	1	1	0	0	510	513	509	493	28	37	
7	1	1	0	0	509	516	511	494	27	37	
8	1	1	0	0	511	513	510	493	27	37	
9	1	1	0	0	510	515	509	493	27	37	
10	1	1	0	0	511	516	509	492	27	37	
11	1	1	0	0	510	515	509	492	27	37	
12	1	1	0	0	514	514	509	492	27	37	
13	1	1	0	0	511	516	508	492	27	37	
14	1	1	0	0	510	517	508	492	27	37	
15	1	1	0	0	511	517	511	492	27	37	
0	1	1	0	0	511	515	510	492	27	37	
1	1	1	0	0	509	515	516	491	27	37	
2	1	1	0	0	512	515	515	491	27	37	
3	1	1	0	0	507	511	509	491	27	37	
4	1	1	0	0	506	509	511	491	27	37	
5	1	1	0	0	507	511	508	491	27	37	
6	1	1	0	0	506	512	508	491	27	37	
7	1	1	0	0	507	513	504	492	27	37	
8	1	1	0	0	510	513	503	491	27	37	
9	1	1	0	0	513	512	505	491	27	37	
10	1	1	0	0	511	514	508	491	27	37	
11	1	1	0	0	510	516	509	489	27	37	
12	1	1	0	0	509	516	508	490	27	37	
13	1	1	0	0	510	516	511	490	27	37	
14	1	1	0	0	512	514	510	490	27	37	
15	1	1	0	0	511	510	512	490	27	37	
0	1	1	0	0	510	512	511	489	27	37	
1	1	1	0	0	505	513	515	490	27	37	
2	1	1	0	0	506	517	512	490	27	37	
3	1	1	0	0	513	514	511	489	27	37	
4	1	1	0	0	514	514	508	490	27	37	
5	1	1	0	0	513	511	508	489	27	37	
6	1	1	0	0	513	511	508	489	28	37	
7	1	1	0	0	512	515	508	490	27	37	
8	1	1	0	0	509	514	508	489	27	37	
9	1	1	0	0	509	512	507	489	27	37	
10	1	1	0	0	510	515	510	489	27	37	
11	1	1	0	0	509	515	510	488	27	37	
12	1	1	0	0	509	512	510	489	27	37	
13	1	1	0	0	507	513	510	489	27	37	
14	1	1	0	0	509	509	507	489	28	37	
15	1	1	0	0	506	509	508	490	27	37	
0	1	1	0	0	507	511	506	489	27	37	
1	1	1	0	0	508	511	508	490	27	37	
2	1	1	0	0	509	512	508	489	27	37	
3	1	1	0	0	511	510	506	488	27	37	
4	1	1	0	0	512	507	505	489	27	37	
5	1	1	0	0	513	505	503	489	28	37	
6	1	1	0	0	507	508	511	488	28	37	
7	1	1	0	0	507	515	512	489	27	37	
8	1	1	0	0	510	513	512	489	27	37	
9	1	1	0	0	511	512	514	489	27	37	
10	1	1	0	0	513	512	512	489	27	37	
11	1	1	0	0	512	518	511	488	28	37	
12	1	1	0	0	511	516	508	489	27	37	
13	1	1	0	0	510	515	504	489	28	37	
14	1	1	0	0	506	513	505	489	28	37	
15	1	1	0	0	508	514	508	490	28	37	
0	1	1	0	0	511	512	510	488	28	37	
1	1	1	0	0	509	510	508	489	28	37	
2	1	1	0	0	509	511	508	489	27	37	
3	1	1	0	0	509	515	511	488	27	37	
4	1	1	0	0	509	513	510	489	27	37	
5	1	1	0	0	510	515	510	489	28	37	
6	1	1	0	0	514	518	513	490	28	37	
7	1	1	0	0	512	521	512	490	28	37	
8	1	1	0	0	508	519	511	489	28	37	
9	1	1	0	0	510	521	513	489	28	37	
10	1	1	0	0	513	521	524	489	27	37	
11	1	1	0	0	514	515	522	489	28	37	
12	1	1	0	0	509	510	512	489	28	37	
13	1	1	0	0	504	504	510	489	28	37	
14	1	1	0	0	507	506	505	489	28	37	
15	1	1	0	0	513	509	506	490	28	37	
0	1	1	0	0	511	510	502	489	27	37	
1	1	1	0	0	507	515	509	490	27	37	
2	1	1	0	0	512	522	510	490	27	37	
3	1	1	0	0	513	512	492	489	27	37	
4	1	1	0	0	503	500	487	490	28	37	
5	1	1	0	0	507	497	495	490	28	37	
6	1	1	0	0	517	507	501	491	28	37	
7	1	1	0	0	513	510	503	491	28	37	
8	1	1	0	0	505	512	506	490	27	37	
9	1	1	0	0	505	516	515	491	28	37	
10	1	1	0	0	505	520	520	491	27	37	
11	1	1	0	0	515	521	515	490	28	37	
12	1	1	0	0	523	510	516	490	27	37	
13	1	1	0	0	509	509	520	490	27	37	
14	1	1	0	0	508	510	518	491	28	37	
15	1	1	0	0	510	515	511	491	27	37	
0	1	1	0	0	508	515	510	491	27	37	
1	1	1	0	0	507	513	503	491	27	37	
2	1	1	0	0	507	511	499	491	27	37	
3	1	1	0	0	506	511	498	491	27	37	
4	1	1	0	0	506	514	504	492	28	37	
5	1	1	0	0	513	520	507	492	28	37	
6	1	1	0	0	508	514	506	492	28	37	
7	1	1	0	0	512	513	507	492	28	37	
8	1	1	0	0	509	510	513	491	28	37	
9	1	1	0	0	505	510	515	491	28	37	
10	1	1	0	0	514	514	517	491	27	37	
11	1	1	0	0	509	516	513	489	28	37	
12	1	1	0	0	504	515	511	491	28	37	
13	1	1	0	0	505	513	510	491	28	37	
14	1	1	0	0	509	516	510	492	28	37	
15	1	1	0	0	501	518	512	492	28	37	
0	1	1	0	0	502	513	508	491	28	37	
1	1	1	0	0	519	506	509	492	28	37	
2	1	1	0	0	527	515	514	491	27	37	
3	1	1	0	0	515	512	513	490	28	37	
4	1	1	0	0	511	515	510	491	28	37	
5	1	1	0	0	508	518	517	491	28	37	
6	1	1	0	0	515	518	519	491	28	37	
7	1	1	0	0	514	514	519	491	28	37	
8	1	1	0	0	515	513	519	490	28	37	
9	1	1	0	0	508	506	513	490	28	37	
10	1	1	0	0	506	502	501	489	27	37	
11	1	1	0	0	507	503	495	488	28	37	
12	1	1	0	0	504	506	493	491	28	37	
13	1	1	0	0	511	513	490	491	28	37	
14	1	1	0	0	511	515	492	490	28	37	
15	1	1	0	0	499	514	496	491	28	37	
0	1	1	0	0	495	512	504	490	28	37	
1	1	1	0	0	503	514	508	490	28	37	
2	1	1	0	0	521	513	514	491	27	37	
3	1	1	0	0	519	516	525	490	28	37	
4	1	1	0	0	511	522	524	490	28	37	
5	1	1	0	0	510	515	515	490	28	37	
6	1	1	0	0	514	516	509	490	28	37	
7	1	1	0	0	521	519	515	490	28	37	
8	1	1	0	0	515	513	510	489	28	37	
9	1	1	0	0	510	515	506	489	28	37	
10	1	1	0	0	511	515	510	489	27	37	
11	1	1	0	0	512	513	504	490	28	37	
12	1	1	0	0	511	508	507	491	28	37	
13	1	1	0	0	509	511	509	490	28	37	
14	1	1	0	0	505	516	507	490	28	37	
15	1	1	0	0	507	516	510	491	28	37	
0	1	1	0	0	508	519	511	491	28	37	
1	1	1	0	0	506	512	500	491	28	37	
2	1	1	0	0	507	504	494	491	27	37	
3	1	1	0	0	502	506	498	489	28	37	
4	1	1	0	0	510	515	508	489	28	37	
5	1	1	0	0	509	512	521	489	28	37	
6	1	1	0	0	514	510	527	490	28	37	
7	1	1	0	0	513	515	526	491	27	37	
8	1	1	0	0	506	513	514	490	27	37	
9	1	1	0	0	504	507	509	490	27	37	
10	1	1	0	0	515	508	510	490	27	37	
11	1	1	0	0	512	513	504	490	27	37	
12	1	1	0	0	514	515	497	490	27	37	
13	1	1	0	0	509	513	499	490	27	37	
14	1	1	0	0	507	511	507	490	28	37	
15	1	1	0	0	504	515	506	491	27	37	
0	1	1	0	0	504	519	508	490	27	37	
1	1	1	0	0	518	518	510	489	27	37	
2	1	1	0	0	518	511	508	489	27	37	
3	1	1	0	0	505	509	508	488	27	37	
4	1	1	0	0	504	512	510	489	27	37	
5	1	1	0	0	505	518	512	490	27	37	
6	1	1	0	0	511	517	513	491	28	37	
7	1	1	0	0	519	520	512	490	27	37	
8	1	1	0	0	512	506	502	490	27	37	
9	1	1	0	0	510	507	514	490	27	37	
10	1	1	0	0	507	510	523	491	27	37	
11	1	1	0	0	509	513	532	491	27	37	
12	1	1	0	0	507	519	532	491	27	37	
13	1	1	0	0	502	516	533	491	27	37	
14	1	1	0	0	496	509	528	491	28	37	
15	1	1	0	0	509	515	500	491	27	37	
0	1	1	0	0	523	503	487	490	27	37	
1	1	1	0	0	515	508	492	490	27	37	
2	1	1	0	0	518	514	492	491	27	37	
3	1	1	0	0	512	513	491	491	27	37	
4	1	1	0	0	508	513	493	491	27	37	
5	1	1	0	0	508	516	508	492	27	37	
6	1	1	0	0	519	515	509	491	27	37	
7	1	1	0	0	516	510	508	491	27	37	
8	1	1	0	0	509	510	508	492	27	37	
9	1	1	0	0	508	514	507	492	27	37	
10	1	1	0	0	501	516	529	492	27	37	
11	1	1	0	0	512	519	529	492	27	37	
12	1	1	0	0	515	515	510	492	27	37	
13	1	1	0	0	510	517	502	493	27	37	
14	1	1	0	0	507	517	491	493	27	37	
15	1	1	0	0	504	518	487	493	27	37	
0	1	1	0	0	506	513	486	494	27	37	
1	1	1	0	0	515	513	496	494	27	37	
2	1	1	0	0	505	507	507	495	26	37	
3	1	1	0	0	495	502	513	494	27	37	
4	1	1	0	0	509	509	520	496	27	37	
5	1	1	0	0	504	510	526	496	27	37	
6	1	1	0	0	505	515	533	496	27	37	
7	1	1	0	0	493	515	553	497	27	37	
8	1	1	0	0	517	521	560	497	27	37	
9	1	1	0	0	527	506	549	497	27	37	
10	1	1	0	0	518	516	530	496	26	37	
11	1	1	0	0	508	505	502	496	27	37	
12	1	1	0	0	511	511	486	496	27	37	
13	1	1	0	0	512	521	469	497	27	37	
14	1	1	0	0	520	521	456	498	27	37	
15	1	1	0	0	522	515	472	498	27	37	
0	1	1	0	0	508	514	572	498	27	37	
1	1	1	0	0	500	509	598	497	27	37	
2	1	1	0	0	501	505	544	499	26	37	
3	1	1	0	0	509	516	497	498	27	37	
4	1	1	0	0	524	522	446	499	27	37	
5	1	1	0	0	524	515	398	498	27	37	
6	1	1	0	0	502	507	372	498	27	37	
7	1	1	0	0	504	505	435	498	27	37	
8	1	1	0	0	507	508	497	498	27	37	
9	1	1	0	0	504	512	533	499	26	37	
10	1	1	0	0	496	518	540	499	26	37	
11	1	1	0	0	512	526	531	499	26	37	
12	1	1	0	0	526	519	516	499	26	37	
13	1	1	0	0	526	516	520	499	26	37	
14	1	1	0	0	509	520	535	499	27	37	
15	1	1	0	0	517	513	539	499	26	37	
0	1	1	0	0	501	504	540	499	26	37	
1	1	1	0	0	500	507	558	499	26	37	
2	1	1	0	0	506	514	541	500	26	37	
3	1	1	0	0	481	500	509	499	26	37	
4	1	1	0	0	495	504	495	500	26	37	
5	1	1	0	0	508	508	487	499	26	37	
6	1	1	0	0	495	507	486	499	26	37	
7	1	1	0	0	510	508	493	500	26	37	
8	1	1	0	0	520	520	515	499	26	36	
9	1	1	0	0	524	517	504	499	26	36	
10	1	1	0	0	523	519	517	500	26	36	
11	1	1	0	0	515	517	516	500	26	36	
12	1	1	0	0	499	515	518	500	26	36	
13	1	1	0	0	493	519	521	500	26	36	
14	1	1	0	0	513	515	512	499	26	36	
15	1	1	0	0	509	497	503	500	26	36	
0	1	1	0	0	517	512	511	500	26	36	
1	1	1	0	0	520	518	514	499	26	36	
2	1	1	0	0	518	520	511	498	25	36	
3	1	1	0	0	519	518	521	497	26	36	
4	1	1	0	0	521	517	519	498	25	36	
5	1	1	0	0	517	513	524	498	25	36	
6	1	1	0	0	510	509	530	499	26	36	
7	1	1	0	0	507	511	522	497	25	36	
8	1	1	0	0	507	512	526	496	25	36	
9	1	1	0	0	509	516	534	496	25	36	
10	1	1	0	0	505	513	527	496	25	36	
11	1	1	0	0	506	515	501	494	25	36	
12	1	1	0	0	506	516	477	494	25	36	
13	1	1	0	0	505	511	456	493	25	36	
14	1	1	0	0	504	509	465	493	25	36	
15	1	1	0	0	506	508	466	493	25	36	
0	1	1	0	0	509	511	472	492	25	36	
1	1	1	0	0	512	518	495	492	25	36	
2	1	1	0	0	512	515	512	492	25	36	
3	1	1	0	0	504	510	519	491	25	36	
4	1	1	0	0	505	511	522	492	25	36	
5	1	1	0	0	508	511	531	491	25	36	
6	1	1	0	0	507	512	527	491	25	36	
7	1	1	0	0	509	510	523	491	25	36	
8	1	1	0	0	505	510	517	490	25	36	
9	1	1	0	0	504	509	511	489	25	36	
10	1	1	0	0	508	511	508	489	24	37	
11	1	1	0	0	509	512	507	486	25	37	
12	1	1	0	0	506	511	509	487	25	37	
13	1	1	0	0	510	515	515	486	24	37	
14	1	1	0	0	515	515	523	485	25	37	
15	1	1	0	0	519	515	528	486	24	37	
0	1	1	0	0	529	526	536	484	24	37	
1	1	1	0	0	504	515	540	484	24	37	
2	1	1	0	0	492	507	518	483	24	37	
3	1	1	0	0	500	507	509	482	24	37	
4	1	1	0	0	504	509	507	482	24	37	
5	1	1	0	0	509	511	492	481	24	37	
6	1	1	0	0	512	511	479	481	25	37	
7	1	1	0	0	518	523	490	481	24	37	
8	1	1	0	0	517	519	486	479	24	37	
9	1	1	0	0	510	515	491	479	24	37	
10	1	1	0	0	508	513	502	478	24	37	
11	1	1	0	0	510	512	512	476	24	37	
12	1	1	0	0	511	518	516	477	24	37	
13	1	1	0	0	512	516	514	478	24	37	
14	1	1	0	0	511	514	513	477	24	37	
15	1	1	0	0	512	513	514	478	24	37	
0	1	1	0	0	514	518	519	476	24	37	
1	1	1	0	0	512	511	510	477	24	37	
2	1	1	0	0	511	503	504	477	24	37	
3	1	1	0	0	493	506	516	476	24	37	
4	1	1	0	0	507	516	537	477	24	37	
5	1	1	0	0	513	515	563	477	24	37	
6	1	1	0	0	506	505	552	476	24	37	
7	1	1	0	0	511	512	536	476	24	37	
8	1	1	0	0	513	518	498	476	24	37	
9	1	1	0	0	513	510	446	477	24	37	
10	1	1	0	0	511	511	429	476	23	37	
11	1	1	0	0	511	509	459	476	24	37	
12	1	1	0	0	507	507	484	477	24	37	
13	1	1	0	0	508	510	504	477	24	37	
14	1	1	0	0	508	514	511	478	24	37	
15	1	1	0	0	510	512	513	478	24	37	
0	1	1	0	0	510	513	516	478	24	37	
1	1	1	0	0	513	525	518	478	24	37	
2	1	1	0	0	509	531	515	479	24	37	
3	1	1	0	0	512	528	519	478	24	37	
4	1	1	0	0	511	527	519	479	24	37	
5	1	1	0	0	509	524	516	480	24	37	
6	1	1	0	0	509	518	514	480	25	37	
7	1	1	0	0	512	519	521	481	24	37	
8	1	1	0	0	521	524	521	481	25	37	
9	1	1	0	0	521	502	509	482	25	37	
10	1	1	0	0	511	459	502	482	24	37	
11	1	1	0	0	508	453	505	482	25	37	
12	1	1	0	0	505	486	506	483	25	37	
13	1	1	0	0	508	508	508	483	25	37	
14	1	1	0	0	505	516	508	483	25	37	
15	1	1	0	0	509	520	511	483	25	37	
0	1	1	0	0	506	520	513	483	25	37	
1	1	1	0	0	505	519	510	483	25	37	
2	1	1	0	0	508	518	509	484	24	37	
3	1	1	0	0	505	519	508	483	25	37	
4	1	1	0	0	504	529	511	484	25	37	
5	1	1	0	0	497	533	512	486	25	37	
6	1	1	0	0	502	542	513	485	25	37	
7	1	1	0	0	501	565	519	487	25	37	
8	1	1	0	0	499	557	517	487	25	37	
9	1	1	0	0	500	547	516	488	25	37	
10	1	1	0	0	509	531	513	489	25	37	
11	1	1	0	0	519	515	512	490	25	37	
12	1	1	0	0	527	488	512	491	25	37	
13	1	1	0	0	528	468	507	492	25	37	
14	1	1	0	0	527	462	504	492	26	37	
15	1	1	0	0	525	411	493	493	25	37	
0	1	1	0	0	516	424	492	494	25	37	
1	1	1	0	0	520	490	495	494	25	37	
2	1	1	0	0	511	517	503	496	25	37	
3	1	1	0	0	507	525	508	495	25	37	
4	1	1	0	0	503	526	510	495	25	37	
5	1	1	0	0	507	528	511	496	25	37	
6	1	1	0	0	506	544	513	496	26	37	
7	1	1	0	0	495	575	516	496	26	37	
8	1	1	0	0	471	609	524	496	26	37	
9	1	1	0	0	453	614	522	496	26	37	
10	1	1	0	0	467	591	519	497	25	37	
11	1	1	0	0	493	571	519	497	26	37	
12	1	1	0	0	512	541	517	498	26	37	
13	1	1	0	0	533	492	513	499	26	37	
14	1	1	0	0	563	411	510	499	26	37	
15	1	1	0	0	568	371	504	500	26	37	
0	1	1	0	0	558	362	493	500	26	37	
1	1	1	0	0	550	401	494	500	26	37	
2	1	1	0	0	538	487	499	500	26	37	
3	1	1	0	0	528	528	509	500	26	37	
4	1	1	0	0	522	528	510	500	26	37	
5	1	1	0	0	511	513	501	500	26	37	
6	1	1	0	0	499	507	496	500	26	37	
7	1	1	0	0	499	526	509	500	26	37	
8	1	1	0	0	498	529	508	500	26	37	
9	1	1	0	0	494	526	509	501	26	37	
10	1	1	0	0	492	523	510	502	26	37	
11	1	1	0	0	496	520	508	501	26	37	
12	1	1	0	0	496	520	507	503	26	37	
13	1	1	0	0	497	523	505	504	26	37	
14	1	1	0	0	500	529	505	504	27	37	
15	1	1	0	0	506	533	508	506	26	37	
0	1	1	0	0	508	536	521	506	27	37	
1	1	1	0	0	512	537	522	506	26	37	
2	1	1	0	0	495	563	519	507	26	37	
3	1	1	0	0	478	567	521	507	27	37	
4	1	1	0	0	485	554	517	507	27	37	
5	1	1	0	0	496	549	515	508	27	37	
6	1	1	0	0	498	562	514	510	27	37	
7	1	1	0	0	496	563	515	510	27	37	
8	1	1	0	0	503	534	514	510	27	37	
9	1	1	0	0	527	481	509	510	27	37	
10	1	1	0	0	536	454	496	510	26	37	
11	1	1	0	0	537	478	497	511	27	37	
12	1	1	0	0	532	496	498	511	27	37	
13	1	1	0	0	527	461	502	512	27	37	
14	1	1	0	0	531	423	501	511	27	37	
15	1	1	0	0	531	449	487	512	27	37	
0	1	1	0	0	517	508	494	511	27	37	
1	1	1	0	0	508	559	511	512	27	37	
2	1	1	0	0	502	569	535	512	27	37	
3	1	1	0	0	496	531	517	512	27	37	
4	1	1	0	0	498	528	499	513	28	37	
5	1	1	0	0	477	560	496	514	28	37	
6	1	1	0	0	484	571	509	514	28	37	
7	1	1	0	0	485	549	528	515	28	37	
8	1	1	0	0	487	570	521	515	28	37	
9	1	1	0	0	501	575	532	515	28	37	
10	1	1	0	0	504	521	511	515	28	37	
11	1	1	0	0	499	428	501	515	29	37	
12	1	1	0	0	514	428	506	515	29	37	
13	1	1	0	0	520	448	515	515	29	36	
14	1	1	0	0	506	435	503	515	29	36	
15	1	1	0	0	531	453	502	516	29	36	
0	1	1	0	0	542	427	504	515	29	36	
1	1	1	0	0	536	463	499	515	29	36	
2	1	1	0	0	542	482	515	515	29	36	
3	1	1	0	0	535	475	503	514	29	36	
4	1	1	0	0	536	506	498	515	30	36	
5	1	1	0	0	547	492	504	515	30	36	
6	1	1	0	0	539	485	518	515	30	36	
7	1	1	0	0	555	513	520	515	30	35	
8	1	1	0	0	520	537	512	514	30	35	
9	1	1	0	0	491	545	507	515	30	35	
10	1	1	0	0	478	583	512	515	30	35	
11	1	1	0	0	456	613	504	515	30	35	
12	1	1	0	0	463	601	515	515	30	35	
13	1	1	0	0	498	558	514	515	30	35	
14	1	1	0	0	524	504	509	516	30	35	
15	1	1	0	0	546	429	515	516	30	35	
0	1	1	0	0	538	438	514	516	30	34	
1	1	1	0	0	549	509	494	516	30	34	
2	1	1	0	0	513	544	455	516	30	34	
3	1	1	0	0	476	575	479	516	30	34	
4	1	1	0	0	473	578	505	516	30	34	
5	1	1	0	0	476	549	532	516	31	34	
6	1	1	0	0	479	514	558	515	31	34	
7	1	1	0	0	457	516	531	516	30	34	
8	1	1	0	0	471	519	512	516	30	34	
9	1	1	0	0	487	512	495	516	30	34	
10	1	1	0	0	507	519	500	516	30	33	
11	1	1	0	0	487	483	504	515	31	33	
12	1	1	0	0	483	472	505	516	31	33	
13	1	1	0	0	527	448	533	515	31	33	
14	1	1	0	0	550	480	552	515	31	33	
15	1	1	0	0	588	535	531	515	31	33	
0	1	1	0	0	581	567	511	514	31	33	
1	1	1	0	0	568	555	502	513	30	33	
2	1	1	0	0	557	526	511	513	30	33	
3	1	1	0	0	543	505	488	511	30	33	
4	1	1	0	0	532	494	503	512	30	33	
5	1	1	0	0	513	507	509	511	30	33	
6	1	1	0	0	487	525	503	512	30	33	
7	1	1	0	0	475	529	504	512	30	33	
8	1	1	0	0	466	526	499	511	30	33	
9	1	1	0	0	456	524	492	511	30	33	
10	1	1	0	0	459	503	496	511	30	33	
11	1	1	0	0	480	506	496	510	30	33	
12	1	1	0	0	483	505	519	509	30	33	
13	1	1	0	0	491	496	524	508	30	33	
14	1	1	0	0	498	502	513	508	30	33	
15	1	1	0	0	545	511	512	507	30	33	
0	1	1	0	0	559	518	510	504	30	33	
1	1	1	0	0	547	537	507	504	29	32	
2	1	1	0	0	542	552	508	504	29	32	
3	1	1	0	0	527	563	512	502	29	32	
4	1	1	0	0	504	562	516	501	29	32	
5	1	1	0	0	485	563	513	500	29	32	
6	1	1	0	0	476	572	515	499	29	32	
7	1	1	0	0	469	524	513	498	29	32	
8	1	1	0	0	503	509	512	497	29	32	
9	1	1	0	0	527	463	508	495	29	32	
10	1	1	0	0	528	423	494	493	28	32	
11	1	1	0	0	503	396	488	490	28	32	
12	1	1	0	0	524	385	497	489	28	32	
13	1	1	0	0	529	411	517	487	28	32	
14	1	1	0	0	511	439	502	485	28	32	
15	1	1	0	0	480	503	505	484	27	32	
0	1	1	0	0	469	547	512	482	27	32	
1	1	1	0	0	490	534	516	481	27	32	
2	1	1	0	0	484	523	515	480	26	32	
3	1	1	0	0	480	530	509	478	26	32	
4	1	1	0	0	496	559	519	477	26	32	
5	1	1	0	0	504	565	524	476	26	32	
6	1	1	0	0	496	556	515	475	26	32	
7	1	1	0	0	504	527	503	475	25	32	
8	1	1	0	0	506	526	509	475	25	32	
9	1	1	0	0	516	535	507	473	25	32	
10	1	1	0	0	530	531	511	473	24	31	
11	1	1	0	0	523	522	511	473	24	31	
12	1	1	0	0	529	519	513	473	24	31	
13	1	1	0	0	524	517	511	475	24	31	
14	1	1	0	0	515	538	511	475	24	31	
15	1	1	0	0	511	544	513	476	24	31	
0	1	1	0	0	518	538	515	475	24	31	
1	1	1	0	0	515	533	513	475	23	31	
2	1	1	0	0	525	551	516	476	23	31	
3	1	1	0	0	522	521	505	475	23	32	
4	1	1	0	0	525	510	506	476	23	32	
5	1	1	0	0	535	503	507	477	23	32	
6	1	1	0	0	536	480	507	478	23	32	
7	1	1	0	0	529	441	504	477	23	33	
8	1	1	0	0	519	444	504	477	23	33	
9	1	1	0	0	514	443	504	478	23	33	
10	1	1	0	0	515	466	503	478	23	34	
11	1	1	0	0	505	512	506	478	24	34	
12	1	1	0	0	486	533	507	479	24	34	
13	1	1	0	0	494	536	506	480	24	35	
14	1	1	0	0	507	527	508	480	24	35	
15	1	1	0	0	511	521	506	480	24	35	
0	1	1	0	0	520	523	509	479	24	36	
1	1	1	0	0	510	501	509	479	25	36	
2	1	1	0	0	514	508	509	478	25	36	
3	1	1	0	0	512	523	510	478	25	37	
4	1	1	0	0	505	530	511	478	26	37	
5	1	1	0	0	508	526	509	478	26	37	
6	1	1	0	0	506	525	508	479	26	38	
7	1	1	0	0	506	524	509	480	26	38	
8	1	1	0	0	505	526	511	480	27	38	
9	1	1	0	0	507	526	512	481	27	38	
10	1	1	0	0	507	524	509	482	27	39	
11	1	1	0	0	508	520	511	482	27	39	
12	1	1	0	0	508	515	512	483	27	39	
13	1	1	0	0	508	514	509	483	28	40	
14	1	1	0	0	509	510	509	484	28	40	
15	1	1	0	0	509	510	512	484	28	40	
0	1	1	0	0	511	513	508	484	28	40	
1	1	1	0	0	513	512	510	483	28	41	
2	1	1	0	0	512	512	511	484	28	41	
3	1	1	0	0	512	521	512	484	29	41	
4	1	1	0	0	515	522	515	486	29	41	
5	1	1	0	0	512	518	515	486	29	41	
6	1	1	0	0	511	514	513	487	30	41	
7	1	1	0	0	509	506	510	489	29	41	
8	1	1	0	0	509	499	509	489	30	41	
9	1	1	0	0	510	499	508	489	30	41	
10	1	1	0	0	511	499	505	490	29	41	
11	1	1	0	0	513	500	507	490	30	41	
12	1	1	0	0	508	512	506	492	30	41	
13	1	1	0	0	508	526	506	492	30	41	
14	1	1	0	0	506	527	502	495	31	41	
15	1	1	0	0	508	527	500	496	30	41	
0	1	1	0	0	511	524	502	498	30	41	
1	1	1	0	0	512	532	504	499	31	41	
2	1	1	0	0	509	568	516	502	30	41	
3	1	1	0	0	503	551	515	505	31	41	
4	1	1	0	0	506	549	515	508	31	40	
5	1	1	0	0	516	539	512	510	31	40	
6	1	1	0	0	519	498	511	513	31	40	
7	1	1	0	0	504	458	507	516	31	40	
8	1	1	0	0	496	458	503	518	31	40	
9	1	1	0	0	496	492	503	520	31	40	
10	1	1	0	0	506	508	500	523	31	40	
11	1	1	0	0	520	509	503	526	32	40	
12	1	1	0	0	519	524	507	529	32	40	
13	1	1	0	0	508	532	504	532	31	40	
14	1	1	0	0	499	510	501	535	32	40	
15	1	1	0	0	511	492	505	538	31	40	
0	1	1	0	0	507	459	508	540	31	40	
1	1	1	0	0	502	425	505	542	31	40	
2	1	1	0	0	503	422	501	544	31	40	
3	1	1	0	0	497	454	499	545	31	40	
4	1	1	0	0	507	482	498	548	31	40	
5	1	1	0	0	526	521	507	548	31	40	
6	1	1	0	0	523	536	508	551	31	40	
7	1	1	0	0	514	532	512	551	30	40	
8	1	1	0	0	510	503	512	552	30	39	
9	1	1	0	0	511	489	511	554	30	39	
10	1	1	0	0	510	507	508	555	29	39	
11	1	1	0	0	508	529	505	555	30	39	
12	1	1	0	0	512	560	510	557	30	39	
13	1	1	0	0	504	558	514	557	29	39	
14	1	1	0	0	507	552	512	558	30	39	
15	1	1	0	0	518	565	509	559	29	39	
0	1	1	0	0	531	576	506	558	29	39	
1	1	1	0	0	519	582	508	558	29	39	
2	1	1	0	0	504	575	510	556	29	38	
3	1	1	0	0	499	557	507	556	29	38	
4	1	1	0	0	505	534	507	556	29	38	
5	1	1	0	0	504	519	504	556	29	38	
6	1	1	0	0	505	498	509	556	29	38	
7	1	1	0	0	506	480	510	556	29	39	
8	1	1	0	0	507	483	506	555	29	39	
9	1	1	0	0	508	496	509	554	29	39	
10	1	1	0	0	510	509	514	553	28	39	
11	1	1	0	0	509	518	517	552	29	39	
12	1	1	0	0	504	537	519	553	28	39	
13	1	1	0	0	502	543	513	551	28	39	
14	1	1	0	0	511	516	503	551	29	39	
15	1	1	0	0	519	483	496	551	29	39	
0	1	1	0	0	522	464	504	550	28	39	
1	1	1	0	0	512	469	511	548	28	40	
2	1	1	0	0	511	431	520	547	28	40	
3	1	1	0	0	532	408	522	545	28	40	
4	1	1	0	0	535	443	524	545	28	40	
5	1	1	0	0	512	473	521	545	28	40	
6	1	1	0	0	506	488	520	544	29	40	
7	1	1	0	0	510	492	514	544	28	40	
8	1	1	0	0	505	513	513	543	28	40	
9	1	1	0	0	503	543	521	543	28	40	
10	1	1	0	0	504	577	526	542	28	40	
11	1	1	0	0	498	624	520	541	28	40	
12	1	1	0	0	498	633	507	541	28	40	
13	1	1	0	0	494	633	492	540	28	40	
14	1	1	0	0	485	615	483	539	29	40	
15	1	1	0	0	493	582	480	539	28	40	
0	1	1	0	0	503	516	495	538	28	40	
1	1	1	0	0	504	463	511	538	28	40	
2	1	1	0	0	494	440	513	538	28	40	
3	1	1	0	0	491	428	520	537	28	40	
4	1	1	0	0	496	428	515	538	28	40	
5	1	1	0	0	499	424	503	538	28	40	
6	1	1	0	0	500	433	488	538	28	40	
7	1	1	0	0	510	466	472	539	28	40	
8	1	1	0	0	519	488	468	539	28	40	
9	1	1	0	0	516	510	479	538	28	40	
10	1	1	0	0	510	528	491	538	28	40	
11	1	1	0	0	508	529	503	537	28	40	
12	1	1	0	0	520	529	520	537	28	40	
13	1	1	0	0	532	539	530	537	28	40	
14	1	1	0	0	531	557	526	537	28	40	
15	1	1	0	0	522	592	529	537	28	40	
0	1	1	0	0	523	587	536	536	28	40	
1	1	1	0	0	527	558	547	537	28	40	
2	1	1	0	0	528	507	531	536	27	40	
3	1	1	0	0	517	476	515	535	27	40	
4	1	1	0	0	511	467	504	536	27	40	
5	1	1	0	0	510	472	495	535	27	40	
6	1	1	0	0	511	480	511	534	27	40	
7	1	1	0	0	501	480	525	534	27	40	
8	1	1	0	0	505	485	539	534	27	40	
9	1	1	0	0	508	499	588	533	27	40	
10	1	1	0	0	510	515	594	532	26	40	
11	1	1	0	0	509	524	549	533	27	40	
12	1	1	0	0	497	527	512	534	26	40	
13	1	1	0	0	501	534	467	534	26	40	
14	1	1	0	0	507	527	437	535	26	40	
15	1	1	0	0	512	524	435	536	26	40	
0	1	1	0	0	511	524	440	536	26	39	
1	1	1	0	0	501	526	460	537	26	39	
2	1	1	0	0	501	536	493	538	25	39	
3	1	1	0	0	521	536	498	537	26	39	
4	1	1	0	0	518	501	486	539	26	39	
5	1	1	0	0	514	495	497	540	25	39	
6	1	1	0	0	510	512	521	540	26	39	
7	1	1	0	0	494	516	534	541	25	38	
8	1	1	0	0	508	516	535	543	25	38	
9	1	1	0	0	511	512	544	544	25	38	
10	1	1	0	0	455	523	553	545	25	38	
11	1	1	0	0	436	513	531	547	25	37	
12	1	1	0	0	522	517	524	550	25	37	
13	1	1	0	0	584	517	501	551	26	37	
14	1	1	0	0	566	504	493	555	26	36	
15	1	1	0	0	522	493	495	558	26	36	
0	1	1	0	0	510	493	496	559	26	36	
1	1	1	0	0	533	515	514	561	26	35	
2	1	1	0	0	545	527	519	563	25	35	
3	1	1	0	0	527	524	512	564	26	35	
4	1	1	0	0	511	513	516	567	26	34	
5	1	1	0	0	510	511	512	569	26	34	
6	1	1	0	0	522	521	518	571	26	33	
7	1	1	0	0	493	516	513	573	26	33	
8	1	1	0	0	472	515	505	574	26	33	
9	1	1	0	0	497	517	500	576	25	32	
10	1	1	0	0	490	519	520	576	25	32	
11	1	1	0	0	505	532	540	577	25	32	
12	1	1	0	0	510	526	526	577	25	31	
13	1	1	0	0	527	508	494	576	25	31	
14	1	1	0	0	545	509	487	576	25	31	
15	1	1	0	0	515	498	485	575	24	31	
0	1	1	0	0	502	509	494	572	24	31	
1	1	1	0	0	504	507	493	571	24	31	
2	1	1	0	0	507	506	501	568	23	31	
3	1	1	0	0	502	510	514	566	23	31	
4	1	1	0	0	510	512	516	563	23	31	
5	1	1	0	0	510	513	514	560	23	31	
6	1	1	0	0	506	511	511	555	23	31	
7	1	1	0	0	502	509	512	551	23	31	
8	1	1	0	0	505	511	514	546	23	31	
9	1	1	0	0	507	509	513	541	22	32	
10	1	1	0	0	504	504	509	536	22	32	
11	1	1	0	0	469	510	521	529	22	32	
12	1	1	0	0	467	520	515	524	22	32	
13	1	1	0	0	556	515	503	519	22	33	
14	1	1	0	0	544	510	507	513	23	33	
15	1	1	0	0	531	519	517	508	22	33	
0	1	1	0	0	518	522	521	503	22	34	
1	1	1	0	0	506	522	518	498	22	34	
2	1	1	0	0	499	519	509	493	22	34	
3	1	1	0	0	518	525	511	487	23	35	
4	1	1	0	0	529	524	508	483	23	35	
5	1	1	0	0	517	508	499	479	23	35	
6	1	1	0	0	491	506	505	474	23	36	
7	1	1	0	0	503	509	507	470	23	36	
8	1	1	0	0	510	515	510	466	23	36	
9	1	1	0	0	508	513	509	463	23	37	
10	1	1	0	0	508	509	515	460	23	37	
11	1	1	0	0	503	518	531	456	23	37	
12	1	1	0	0	515	520	518	455	23	37	
13	1	1	0	0	513	504	499	453	23	37	
14	1	1	0	0	496	485	491	452	24	37	
15	1	1	0	0	507	500	500	451	23	38	
0	1	1	0	0	508	505	502	449	23	38	
1	1	1	0	0	510	510	502	449	23	38	
2	1	1	0	0	512	512	500	448	23	38	
3	1	1	0	0	510	511	503	448	24	38	
4	1	1	0	0	510	515	507	449	24	38	
5	1	1	0	0	510	525	528	449	24	38	
6	1	1	0	0	512	533	533	450	24	38	
7	1	1	0	0	524	518	502	451	24	38	
8	1	1	0	0	498	487	488	452	24	38	
9	1	1	0	0	504	506	501	454	24	38	
10	1	1	0	0	503	511	507	456	24	37	
11	1	1	0	0	504	519	510	456	24	38	
12	1	1	0	0	511	518	510	458	24	37	
13	1	1	0	0	499	514	510	460	24	37	
14	1	1	0	0	481	507	511	462	24	37	
15	1	1	0	0	472	510	512	465	24	37	
0	1	1	0	0	536	535	512	467	24	37	
1	1	1	0	0	548	529	511	468	24	37	
2	1	1	0	0	538	522	508	470	24	37	
3	1	1	0	0	532	519	509	471	24	37	
4	1	1	0	0	502	512	509	472	24	37	
5	1	1	0	0	489	507	506	473	24	37	
6	1	1	0	0	517	518	510	474	24	37	
7	1	1	0	0	522	516	512	475	24	36	
8	1	1	0	0	507	514	512	476	24	36	
9	1	1	0	0	504	520	511	476	24	36	
10	1	1	0	0	513	514	508	478	23	36	
11	1	1	0	0	510	506	509	478	24	36	
12	1	1	0	0	503	505	506	479	24	36	
13	1	1	0	0	502	510	508	480	24	36	
14	1	1	0	0	505	513	510	480	24	36	
15	1	1	0	0	504	515	510	480	24	36	
0	1	1	0	0	505	514	508	479	24	36	
1	1	1	0	0	508	516	508	479	24	36	
2	1	1	0	0	510	504	508	479	23	35	
3	1	1	0	0	508	487	506	477	24	35	
4	1	1	0	0	508	496	507	478	23	35	
5	1	1	0	0	505	508	510	477	23	35	
6	1	1	0	0	508	515	512	477	24	35	
7	1	1	0	0	510	524	513	477	23	35	
8	1	1	0	0	503	529	513	476	23	35	
9	1	1	0	0	503	541	518	477	23	35	
10	1	1	0	0	491	545	515	476	23	35	
11	1	1	0	0	472	543	509	476	23	35	
12	1	1	0	0	495	542	511	477	23	35	
13	1	1	0	0	487	521	506	476	23	35	
14	1	1	0	0	475	488	499	477	24	35	
15	1	1	0	0	546	473	502	477	23	35	
0	1	1	0	0	560	438	499	478	23	35	
1	1	1	0	0	550	455	500	477	23	35	
2	1	1	0	0	547	484	503	477	23	35	
3	1	1	0	0	528	488	507	477	23	35	
4	1	1	0	0	511	502	506	478	23	35	
5	1	1	0	0	510	522	507	479	23	35	
6	1	1	0	0	496	543	512	479	23	35	
7	1	1	0	0	492	545	509	479	23	35	
8	1	1	0	0	494	538	513	480	23	35	
9	1	1	0	0	500	532	515	480	23	35	
10	1	1	0	0	503	528	513	481	23	36	
11	1	1	0	0	504	505	511	481	23	36	
12	1	1	0	0	511	469	504	483	23	36	
13	1	1	0	0	519	494	506	484	23	36	
14	1	1	0	0	516	526	512	486	23	36	
15	1	1	0	0	514	536	510	487	23	36	
0	1	1	0	0	506	535	509	487	23	36	
1	1	1	0	0	504	532	511	488	23	36	
2	1	1	0	0	504	528	514	490	22	36	
3	1	1	0	0	505	504	511	489	23	36	
4	1	1	0	0	511	504	509	491	23	36	
5	1	1	0	0	518	513	510	490	23	36	
6	1	1	0	0	519	514	508	491	23	37	
7	1	1	0	0	516	518	510	491	23	37	
8	1	1	0	0	515	517	506	490	23	37	
9	1	1	0	0	511	496	505	490	22	37	
10	1	1	0	0	510	499	508	489	22	37	
11	1	1	0	0	513	515	510	489	22	37	
12	1	1	0	0	511	520	512	488	22	37	
13	1	1	0	0	510	521	510	488	22	37	
14	1	1	0	0	511	511	511	488	23	37	
15	1	1	0	0	515	510	508	489	22	37	
0	1	1	0	0	515	511	509	488	22	37	
1	1	1	0	0	516	512	508	488	22	37	
2	1	1	0	0	513	519	511	488	22	37	
3	1	1	0	0	515	518	508	487	23	37	
4	1	1	0	0	511	519	510	488	23	37	
5	1	1	0	0	508	517	509	489	23	37	
6	1	1	0	0	506	516	508	489	23	37	
7	1	1	0	0	508	515	509	491	23	37	
8	1	1	0	0	511	514	507	492	23	37	
9	1	1	0	0	509	515	506	492	23	37	
10	1	1	0	0	511	516	510	493	23	37	
11	1	1	0	0	508	513	507	492	24	37	
12	1	1	0	0	510	512	510	494	24	37	
13	1	1	0	0	508	514	505	495	24	37	
14	1	1	0	0	508	518	504	496	24	37	
15	1	1	0	0	511	516	505	498	24	37	
0	1	1	0	0	514	519	513	498	24	37	
1	1	1	0	0	518	515	519	499	24	37	
2	1	1	0	0	512	508	521	501	24	37	
3	1	1	0	0	507	504	510	502	25	37	
4	1	1	0	0	504	510	499	504	25	36	
5	1	1	0	0	510	520	497	507	25	36	
6	1	1	0	0	518	528	503	508	26	36	
7	1	1	0	0	512	523	521	511	25	36	
8	1	1	0	0	507	508	519	512	26	36	
9	1	1	0	0	508	510	518	514	26	36	
10	1	1	0	0	513	517	524	515	26	36	
11	1	1	0	0	517	508	510	517	26	36	
12	1	1	0	0	517	512	491	519	26	36	
13	1	1	0	0	511	513	495	519	26	36	
14	1	1	0	0	501	511	505	520	27	36	
15	1	1	0	0	509	532	519	521	26	36	
0	1	1	0	0	514	532	531	522	26	36	
1	1	1	0	0	512	514	534	522	26	36	
2	1	1	0	0	517	509	520	523	26	36	
3	1	1	0	0	509	481	512	523	26	36	
4	1	1	0	0	497	469	487	522	26	36	
5	1	1	0	0	490	475	490	523	26	36	
6	1	1	0	0	496	495	500	522	27	36	
7	1	1	0	0	499	517	508	521	26	36	
8	1	1	0	0	507	533	502	520	26	36	
9	1	1	0	0	515	541	502	519	27	36	
10	1	1	0	0	511	519	510	519	26	36	
11	1	1	0	0	508	491	495	516	27	36	
12	1	1	0	0	511	505	507	517	27	36	
13	1	1	0	0	518	536	510	515	27	36	
14	1	1	0	0	524	547	505	515	27	36	
15	1	1	0	0	528	552	504	515	27	36	
0	1	1	0	0	532	542	502	513	27	36	
1	1	1	0	0	521	522	514	512	27	36	
2	1	1	0	0	506	505	524	511	26	36	
3	1	1	0	0	481	505	507	509	27	36	
4	1	1	0	0	476	518	509	508	27	36	
5	1	1	0	0	484	521	507	507	27	36	
6	1	1	0	0	492	526	510	506	27	36	
7	1	1	0	0	496	513	529	506	27	37	
8	1	1	0	0	502	462	519	504	27	37	
9	1	1	0	0	504	425	513	504	27	37	
10	1	1	0	0	515	427	519	504	26	37	
11	1	1	0	0	537	469	504	503	27	37	
12	1	1	0	0	543	511	484	504	26	37	
13	1	1	0	0	534	527	495	504	26	37	
14	1	1	0	0	524	528	489	504	27	37	
15	1	1	0	0	516	511	490	504	26	37	
0	1	1	0	0	506	522	515	504	26	37	
1	1	1	0	0	510	552	515	503	26	37	
2	1	1	0	0	505	569	531	504	26	37	
3	1	1	0	0	504	525	523	503	26	37	
4	1	1	0	0	517	512	514	505	26	37	
5	1	1	0	0	522	497	525	504	26	37	
6	1	1	0	0	507	506	544	504	26	37	
7	1	1	0	0	495	549	533	505	26	37	
8	1	1	0	0	500	572	521	504	26	37	
9	1	1	0	0	507	563	496	503	25	37	
10	1	1	0	0	512	566	482	503	25	37	
11	1	1	0	0	503	514	491	500	25	37	
12	1	1	0	0	489	440	504	500	25	37	
13	1	1	0	0	480	448	452	499	25	37	
14	1	1	0	0	492	478	485	499	26	37	
15	1	1	0	0	508	513	501	498	25	37	
0	1	1	0	0	518	514	508	497	25	36	
1	1	1	0	0	521	487	524	497	26	36	
2	1	1	0	0	539	510	525	496	25	36	
3	1	1	0	0	525	497	514	495	26	36	
4	1	1	0	0	513	470	519	496	26	36	
5	1	1	0	0	515	539	522	495	26	36	
6	1	1	0	0	510	612	524	496	26	36	
7	1	1	0	0	504	654	516	496	26	36	
8	1	1	0	0	520	657	523	496	26	36	
9	1	1	0	0	524	523	495	495	27	36	
10	1	1	0	0	523	420	508	495	26	36	
11	1	1	0	0	511	390	516	495	27	36	
12	1	1	0	0	505	382	501	496	27	36	
13	1	1	0	0	512	377	492	496	27	36	
14	1	1	0	0	518	469	499	497	27	36	
15	1	1	0	0	493	577	526	499	27	36	
0	1	1	0	0	492	606	550	499	27	36	
1	1	1	0	0	497	587	505	500	28	36	
2	1	1	0	0	504	518	486	501	27	36	
3	1	1	0	0	508	483	475	500	28	36	
4	1	1	0	0	507	467	507	502	28	36	
5	1	1	0	0	508	496	495	504	28	36	
6	1	1	0	0	511	608	512	506	28	36	
7	1	1	0	0	491	674	527	508	28	36	
8	1	1	0	0	502	644	511	509	28	35	
9	1	1	0	0	501	535	511	511	29	35	
10	1	1	0	0	509	561	515	513	28	35	
11	1	1	0	0	505	526	526	515	29	35	
12	1	1	0	0	486	371	511	518	29	35	
13	1	1	0	0	539	423	479	519	29	35	
14	1	1	0	0	552	431	491	521	30	35	
15	1	1	0	0	534	377	515	523	30	35	
0	1	1	0	0	541	363	564	524	30	35	
1	1	1	0	0	548	323	511	526	30	35	
2	1	1	0	0	555	435	494	527	30	35	
3	1	1	0	0	541	633	505	528	30	35	
4	1	1	0	0	502	667	515	530	30	35	
5	1	1	0	0	496	656	501	532	30	35	
6	1	1	0	0	491	603	496	534	30	34	
7	1	1	0	0	486	536	509	535	30	34	
8	1	1	0	0	462	458	521	537	30	34	
9	1	1	0	0	465	479	521	539	30	34	
10	1	1	0	0	479	505	498	540	30	34	
11	1	1	0	0	488	530	497	540	30	34	
12	1	1	0	0	488	507	504	542	30	34	
13	1	1	0	0	486	459	499	544	30	34	
14	1	1	0	0	499	471	503	545	30	33	
15	1	1	0	0	510	450	503	547	30	33	
0	1	1	0	0	521	472	505	548	30	33	
1	1	1	0	0	523	523	512	551	30	33	
2	1	1	0	0	518	553	514	551	30	33	
3	1	1	0	0	512	548	518	553	30	32	
4	1	1	0	0	514	561	519	554	30	32	
5	1	1	0	0	510	580	519	556	30	32	
6	1	1	0	0	507	583	520	556	30	32	
7	1	1	0	0	511	542	517	557	30	32	
8	1	1	0	0	513	493	511	556	29	32	
9	1	1	0	0	518	478	510	556	29	32	
10	1	1	0	0	526	474	506	556	29	32	
11	1	1	0	0	504	519	508	554	29	32	
12	1	1	0	0	502	587	511	554	29	32	
13	1	1	0	0	505	596	516	553	29	32	
14	1	1	0	0	513	578	519	551	29	32	
15	1	1	0	0	512	504	515	551	28	32	
0	1	1	0	0	506	362	506	550	28	32	
1	1	1	0	0	527	371	501	550	28	32	
2	1	1	0	0	544	454	501	548	27	32	
3	1	1	0	0	531	590	507	546	28	32	
4	1	1	0	0	506	639	510	547	27	32	
5	1	1	0	0	502	637	514	546	27	32	
6	1	1	0	0	501	604	516	547	27	32	
7	1	1	0	0	509	550	518	547	27	32	
8	1	1	0	0	505	415	506	547	27	32	
9	1	1	0	0	515	343	496	547	26	32	
10	1	1	0	0	523	320	487	547	26	33	
11	1	1	0	0	527	405	488	546	26	33	
12	1	1	0	0	528	501	499	546	26	33	
13	1	1	0	0	516	549	505	545	26	33	
14	1	1	0	0	503	561	511	544	26	34	
15	1	1	0	0	499	563	513	544	25	34	
0	1	1	0	0	497	555	513	542	25	34	
1	1	1	0	0	500	540	511	541	25	35	
2	1	1	0	0	508	519	508	540	25	35	
3	1	1	0	0	512	516	507	537	25	36	
4	1	1	0	0	507	524	507	536	25	36	
5	1	1	0	0	509	530	508	533	26	37	
6	1	1	0	0	508	529	506	531	26	38	
7	1	1	0	0	510	520	507	530	26	38	
8	1	1	0	0	509	504	506	527	26	39	
9	1	1	0	0	507	514	506	525	26	40	
10	1	1	0	0	511	525	511	522	26	41	
11	1	1	0	0	513	534	512	519	27	41	
12	1	1	0	0	512	536	511	518	27	42	
13	1	1	0	0	513	531	512	515	27	43	
14	1	1	0	0	514	526	515	513	28	43	
15	1	1	0	0	510	529	514	511	28	44	
0	1	1	0	0	507	531	513	509	28	44	
1	1	1	0	0	508	509	510	508	28	45	
2	1	1	0	0	510	505	508	506	29	45	
3	1	1	0	0	510	504	505	503	29	46	
4	1	1	0	0	508	498	501	503	30	46	
5	1	1	0	0	510	492	502	502	30	47	
6	1	1	0	0	506	488	502	500	31	47	
7	1	1	0	0	502	492	503	499	31	47	
8	1	1	0	0	506	499	508	497	32	48	
9	1	1	0	0	505	506	508	496	32	48	
10	1	1	0	0	506	510	508	495	32	48	
11	1	1	0	0	506	505	511	494	33	48	
12	1	1	0	0	508	505	509	494	33	47	
13	1	1	0	0	510	509	510	493	34	47	
14	1	1	0	0	510	517	514	493	34	47	
15	1	1	0	0	511	516	513	493	34	47	
0	1	1	0	0	511	513	513	492	35	46	
1	1	1	0	0	512	511	511	493	35	46	
2	1	1	0	0	511	511	512	494	35	45	
3	1	1	0	0	511	509	511	494	35	45	
4	1	1	0	0	515	512	509	495	35	44	
5	1	1	0	0	512	520	511	496	35	43	
6	1	1	0	0	508	522	511	497	36	43	
7	1	1	0	0	507	521	511	499	35	42	
8	1	1	0	0	510	521	514	501	35	41	
9	1	1	0	0	516	520	514	504	35	41	
10	1	1	0	0	515	524	512	506	34	40	
11	1	1	0	0	512	524	511	508	35	40	
12	1	1	0	0	507	528	512	510	34	39	
13	1	1	0	0	498	541	514	512	34	39	
14	1	1	0	0	501	531	510	515	34	38	
15	1	1	0	0	507	503	506	516	33	38	
0	1	1	0	0	514	482	508	518	33	38	
1	1	1	0	0	516	481	503	519	33	37	
2	1	1	0	0	518	506	507	520	32	37	
3	1	1	0	0	515	513	509	520	32	37	
4	1	1	0	0	509	508	508	523	32	37	
5	1	1	0	0	508	509	507	524	31	37	
6	1	1	0	0	505	506	507	525	31	37	
7	1	1	0	0	507	508	508	526	31	37	
8	1	1	0	0	513	514	507	525	30	37	
9	1	1	0	0	510	511	509	525	30	37	
10	1	1	0	0	511	516	509	526	30	37	
11	1	1	0	0	508	518	512	524	30	37	
12	1	1	0	0	504	518	513	524	29	37	
13	1	1	0	0	505	514	510	523	29	37	
14	1	1	0	0	504	511	509	521	29	37	
15	1	1	0	0	497	504	510	520	28	37	
0	1	1	0	0	498	508	510	517	28	37	
1	1	1	0	0	508	513	508	515	28	37	
2	1	1	0	0	520	525	508	513	27	37	
3	1	1	0	0	529	524	508	512	28	37	
4	1	1	0	0	523	525	510	510	27	37	
5	1	1	0	0	521	523	512	508	27	37	
6	1	1	0	0	515	521	509	505	27	37	
7	1	1	0	0	508	519	512	503	27	37	
8	1	1	0	0	507	515	511	500	27	37	
9	1	1	0	0	509	511	510	497	27	38	
10	1	1	0	0	509	510	509	494	26	38	
11	1	1	0	0	508	510	508	492	26	38	
12	1	1	0	0	508	511	506	490	26	38	
13	1	1	0	0	509	510	507	488	26	38	
14	1	1	0	0	507	512	508	486	26	38	
15	1	1	0	0	509	509	507	486	26	38	
0	1	1	0	0	508	510	507	484	26	38	
1	1	1	0	0	508	510	508	482	26	37	
2	1	1	0	0	508	510	509	482	25	37	
3	1	1	0	0	510	510	508	481	26	37	
4	1	1	0	0	511	512	508	482	26	37	
5	1	1	0	0	509	512	510	482	26	37	
6	1	1	0	0	512	513	508	482	26	37	
7	1	1	0	0	511	512	511	483	25	37	
8	1	1	0	0	511	513	510	483	25	37	
9	1	1	0	0	510	515	511	483	25	37	
10	1	1	0	0	507	517	509	484	25	37	
11	1	1	0	0	505	517	508	484	25	37	
12	1	1	0	0	508	511	508	487	25	37	
13	1	1	0	0	509	509	506	488	25	37	
14	1	1	0	0	509	508	509	489	25	36	
15	1	1	0	0	511	512	509	491	25	36	
0	1	1	0	0	513	508	508	492	25	36	
1	1	1	0	0	510	512	510	494	25	36	
2	1	1	0	0	511	511	508	496	25	36	
3	1	1	0	0	510	513	509	496	25	36	
4	1	1	0	0	510	512	510	497	25	36	
5	1	1	0	0	507	509	511	499	25	36	
6	1	1	0	0	504	508	508	500	25	36	
7	1	1	0	0	506	509	511	502	25	36	
8	1	1	0	0	507	513	509	502	25	36	
9	1	1	0	0	508	510	506	503	25	36	
10	1	1	0	0	513	510	507	504	25	36	
11	1	1	0	0	515	512	510	505	25	36	
12	1	1	0	0	510	516	509	507	25	35	
13	1	1	0	0	507	516	512	507	26	36	
14	1	1	0	0	507	511	510	508	26	35	
15	1	1	0	0	511	510	507	509	26	35	
0	1	1	0	0	511	514	507	509	26	36	
1	1	1	0	0	512	517	511	510	26	36	
2	1	1	0	0	513	517	510	510	25	36	
3	1	1	0	0	514	519	511	509	26	36	
4	1	1	0	0	511	517	511	510	26	36	
5	1	1	0	0	515	518	514	509	26	36	
6	1	1	0	0	511	516	513	510	26	36	
7	1	1	0	0	507	506	510	510	26	36	
8	1	1	0	0	503	502	507	510	26	36	
9	1	1	0	0	509	499	501	510	26	36	
10	1	1	0	0	521	512	505	510	26	36	
11	1	1	0	0	512	517	511	509	26	36	
12	1	1	0	0	502	526	509	509	26	36	
13	1	1	0	0	503	520	506	509	26	36	
14	1	1	0	0	508	518	507	509	27	36	
15	1	1	0	0	510	515	509	509	26	36	
0	1	1	0	0	509	514	508	508	26	36	
1	1	1	0	0	511	512	508	508	26	36	
2	1	1	0	0	511	510	507	508	26	36	
3	1	1	0	0	512	518	511	507	26	37	
4	1	1	0	0	511	515	511	508	26	37	
5	1	1	0	0	512	513	510	508	26	37	
6	1	1	0	0	511	507	509	508	27	37	
7	1	1	0	0	509	509	509	508	26	37	
8	1	1	0	0	505	511	511	508	26	37	
9	1	1	0	0	505	509	510	508	26	37	
10	1	1	0	0	508	508	508	508	26	37	
11	1	1	0	0	511	507	507	507	26	37	
12	1	1	0	0	510	512	505	508	26	37	
13	1	1	0	0	510	515	507	507	26	37	
14	1	1	0	0	507	518	509	508	27	37	
15	1	1	0	0	510	511	511	508	26	37	
0	1	1	0	0	510	504	510	508	26	37	
1	1	1	0	0	508	509	512	508	26	37	
2	1	1	0	0	501	512	513	507	26	37	
3	1	1	0	0	502	497	506	508	26	37	
4	1	1	0	0	532	506	505	508	26	37	
5	1	1	0	0	531	518	508	507	26	37	
6	1	1	0	0	510	518	514	508	26	37	
7	1	1	0	0	508	514	511	508	26	37	
8	1	1	0	0	508	519	510	508	26	37	
9	1	1	0	0	507	516	509	508	26	37	
10	1	1	0	0	509	519	510	508	25	37	
11	1	1	0	0	507	517	511	506	26	37	
12	1	1	0	0	511	521	512	507	26	37	
13	1	1	0	0	511	525	510	507	25	37	
14	1	1	0	0	507	523	511	508	26	37	
15	1	1	0	0	509	524	510	508	25	37	
0	1	1	0	0	507	530	512	508	25	37	
1	1	1	0	0	509	518	510	508	25	37	
2	1	1	0	0	509	502	507	508	25	37	
3	1	1	0	0	509	501	505	508	25	37	
4	1	1	0	0	508	495	505	509	25	37	
5	1	1	0	0	513	495	505	509	25	37	
6	1	1	0	0	512	501	507	509	25	37	
7	1	1	0	0	512	507	508	509	25	37	
8	1	1	0	0	512	512	508	510	25	37	
9	1	1	0	0	509	515	508	509	25	37	
10	1	1	0	0	509	515	509	510	24	37	
11	1	1	0	0	509	517	509	509	25	37	
12	1	1	0	0	509	521	510	510	25	36	
13	1	1	0	0	508	520	510	510	25	36	
14	1	1	0	0	507	516	511	511	25	36	
15	1	1	0	0	509	510	507	511	25	36	
0	1	1	0	0	510	511	507	511	25	36	
1	1	1	0	0	508	508	507	511	25	36	
2	1	1	0	0	511	510	508	511	24	36	
3	1	1	0	0	511	511	509	510	25	36	
4	1	1	0	0	507	510	509	512	25	36	
5	1	1	0	0	500	507	506	511	25	36	
6	1	1	0	0	506	510	508	512	25	36	
7	1	1	0	0	524	516	510	512	25	36	
8	1	1	0	0	528	519	511	512	25	36	
9	1	1	0	0	511	516	512	512	25	36	
10	1	1	0	0	505	515	511	512	24	36	
11	1	1	0	0	507	516	510	512	25	36	
12	1	1	0	0	510	513	509	513	25	36	
13	1	1	0	0	513	515	509	513	25	36	
14	1	1	0	0	509	516	509	513	25	36	
15	1	1	0	0	508	515	511	513	25	36	
0	1	1	0	0	508	515	510	513	25	36	
1	1	1	0	0	512	513	509	513	25	36	
2	1	1	0	0	511	516	508	513	24	36	
3	1	1	0	0	508	516	510	513	25	36	
4	1	1	0	0	508	515	512	514	25	36	
5	1	1	0	0	510	516	510	514	25	36	
6	1	1	0	0	508	513	507	515	25	36	
7	1	1	0	0	512	511	505	515	25	36	
8	1	1	0	0	509	512	509	515	25	36	
9	1	1	0	0	505	513	511	515	25	36	
10	1	1	0	0	506	513	509	515	24	36	
11	1	1	0	0	508	515	507	514	24	36	
12	1	1	0	0	510	514	508	515	24	36	
13	1	1	0	0	509	510	508	514	24	36	
14	1	1	0	0	511	511	508	514	25	36	
15	1	1	0	0	509	508	507	515	24	36	
0	1	1	0	0	508	505	506	515	24	36	
1	1	1	0	0	508	507	508	514	24	36	
2	1	1	0	0	509	507	510	513	24	36	
3	1	1	0	0	507	511	508	513	24	36	
4	1	1	0	0	508	513	508	513	24	36	
5	1	1	0	0	511	512	509	514	24	36	
6	1	1	0	0	519	517	512	513	25	36	
7	1	1	0	0	514	517	510	513	24	37	
8	1	1	0	0	511	518	510	512	24	37	
9	1	1	0	0	509	515	512	512	24	37	
10	1	1	0	0	510	514	510	511	24	37	
11	1	1	0	0	511	514	509	511	24	37	
12	1	1	0	0	508	515	509	511	24	37	
13	1	1	0	0	509	517	511	511	25	37	
14	1	1	0	0	511	515	507	511	25	37	
15	1	1	0	0	512	518	512	512	25	37	
0	1	1	0	0	510	517	509	510	25	37	
1	1	1	0	0	508	512	510	510	25	37	
2	1	1	0	0	511	513	508	510	24	37	
3	1	1	0	0	509	516	509	509	25	37	
4	1	1	0	0	512	515	508	510	25	37	
5	1	1	0	0	511	514	511	509	25	37	
6	1	1	0	0	511	516	509	509	25	37	
7	1	1	0	0	511	516	509	509	25	37	
8	1	1	0	0	507	513	510	508	25	37	
9	1	1	0	0	502	509	509	508	25	37	
10	1	1	0	0	504	506	509	508	24	37	
11	1	1	0	0	508	506	508	508	25	37	
12	1	1	0	0	512	506	508	509	25	37	
13	1	1	0	0	512	507	506	509	25	38	
14	1	1	0	0	507	496	506	508	25	38	
15	1	1	0	0	509	497	509	509	25	38	
0	1	1	0	0	511	505	510	508	25	38	
1	1	1	0	0	511	508	510	507	25	38	
2	1	1	0	0	508	511	509	507	25	38	
3	1	1	0	0	510	514	509	507	25	38	
4	1	1	0	0	511	514	508	507	25	38	
5	1	1	0	0	510	520	509	508	26	38	
6	1	1	0	0	513	520	509	508	26	38	
7	1	1	0	0	511	520	511	509	26	38	
8	1	1	0	0	513	521	511	508	26	38	
9	1	1	0	0	512	518	508	508	26	38	
10	1	1	0	0	511	520	512	509	26	38	
11	1	1	0	0	509	522	513	508	26	38	
12	1	1	0	0	510	519	512	509	26	38	
13	1	1	0	0	511	517	510	509	26	38	
14	1	1	0	0	510	516	508	509	27	38	
15	1	1	0	0	504	515	508	510	26	38	
0	1	1	0	0	508	514	508	510	27	38	
1	1	1	0	0	508	506	505	511	27	38	
2	1	1	0	0	508	508	507	511	26	38	
3	1	1	0	0	510	510	507	511	27	38	
4	1	1	0	0	510	508	507	512	27	38	
5	1	1	0	0	511	511	508	512	27	38	
6	1	1	0	0	510	513	508	513	27	38	
7	1	1	0	0	510	515	510	514	27	38	
8	1	1	0	0	509	516	510	513	27	38	
9	1	1	0	0	509	514	507	514	27	38	
10	1	1	0	0	508	512	508	514	27	38	
11	1	1	0	0	510	512	512	514	27	38	
12	1	1	0	0	510	511	510	515	27	38	
13	1	1	0	0	511	511	508	515	27	38	
14	1	1	0	0	512	510	510	515	28	38	
15	1	1	0	0	511	513	509	515	27	38	
0	1	1	0	0	509	512	510	515	27	38	
1	1	1	0	0	510	515	510	515	27	38	
2	1	1	0	0	510	516	512	516	27	38	
3	1	1	0	0	509	517	511	515	28	38	
4	1	1	0	0	512	516	510	516	28	38	
5	1	1	0	0	511	513	510	516	28	38	
6	1	1	0	0	508	514	511	516	28	38	
7	1	1	0	0	510	514	510	515	27	38	
8	1	1	0	0	509	513	508	515	27	38	
9	1	1	0	0	515	518	510	516	27	38	
10	1	1	0	0	512	517	508	516	27	38	
11	1	1	0	0	511	511	508	515	27	38	
12	1	1	0	0	511	507	509	516	27	38	
13	1	1	0	0	511	508	508	516	27	38	
14	1	1	0	0	510	511	508	516	28	38	
15	1	1	0	0	509	507	508	516	27	38	
0	1	1	0	0	506	510	506	516	27	38	
1	1	1	0	0	510	513	510	516	27	38	
2	1	1	0	0	512	512	508	515	27	38	
3	1	1	0	0	509	512	510	514	27	38	
4	1	1	0	0	507	515	509	515	27	38	
5	1	1	0	0	506	514	508	515	27	38	
6	1	1	0	0	509	515	509	515	27	38	
7	1	1	0	0	510	515	509	515	27	38	
8	1	1	0	0	511	513	509	515	27	38	
9	1	1	0	0	508	513	508	515	27	38	
10	1	1	0	0	509	509	508	515	26	38	
11	1	1	0	0	511	513	509	514	27	38	
12	1	1	0	0	508	513	508	514	27	38	
13	1	1	0	0	509	513	511	514	27	38	
14	1	1	0	0	509	513	509	513	27	38	
15	1	1	0	0	510	516	509	513	27	38	
0	1	1	0	0	509	513	509	513	27	38	
1	1	1	0	0	512	512	510	512	26	38	
2	1	1	0	0	512	513	507	512	26	38	
3	1	1	0	0	511	517	510	512	26	38	
4	1	1	0	0	509	514	510	512	26	38	
5	1	1	0	0	507	515	510	512	27	38	
6	1	1	0	0	508	515	510	511	27	38	
7	1	1	0	0	510	509	508	511	27	38	
8	1	1	0	0	509	509	507	510	27	38	
9	1	1	0	0	509	511	507	511	27	38	
10	1	1	0	0	507	513	508	510	26	38	
11	1	1	0	0	510	515	506	509	27	38	
12	1	1	0	0	511	511	508	509	27	38	
13	1	1	0	0	511	515	509	509	27	38	
14	1	1	0	0	513	519	507	509	27	38	
15	1	1	0	0	512	515	510	509	27	38	
0	1	1	0	0	511	515	508	509	27	38	
1	1	1	0	0	512	510	510	509	27	38	
2	1	1	0	0	511	504	509	509	27	38	
3	1	1	0	0	507	506	510	508	27	38	
4	1	1	0	0	510	510	511	509	27	38	
5	1	1	0	0	512	507	510	509	27	38	
6	1	1	0	0	508	511	508	509	28	38	
7	1	1	0	0	511	516	510	509	27	38	
8	1	1	0	0	510	518	509	508	27	38	
9	1	1	0	0	511	518	510	508	27	38	
10	1	1	0	0	511	520	514	509	27	38	
11	1	1	0	0	508	519	510	509	28	38	
12	1	1	0	0	507	513	508	510	28	38	
13	1	1	0	0	511	505	508	511	28	38	
14	1	1	0	0	507	503	506	511	28	38	
15	1	1	0	0	508	508	506	513	28	38	
0	1	1	0	0	511	511	507	513	28	38	
1	1	1	0	0	510	512	510	513	28	38	
2	1	1	0	0	511	513	508	513	28	38	
3	1	1	0	0	511	516	511	513	28	38	
4	1	1	0	0	511	515	510	513	28	38	
5	1	1	0	0	512	514	508	513	28	38	
6	1	1	0	0	512	515	510	515	29	37	
7	1	1	0	0	510	515	508	515	28	37	
8	1	1	0	0	510	519	511	515	28	37	
9	1	1	0	0	511	521	511	516	28	37	
10	1	1	0	0	512	519	510	516	28	37	
11	1	1	0	0	511	516	511	517	29	37	
12	1	1	0	0	512	518	512	517	29	37	
13	1	1	0	0	509	515	510	518	29	37	
14	1	1	0	0	507	510	508	519	29	37	
15	1	1	0	0	507	505	508	519	29	37	
0	1	1	0	0	505	507	507	518	29	37	
1	1	1	0	0	508	508	507	518	29	37	
2	1	1	0	0	508	509	506	519	28	37	
3	1	1	0	0	508	509	508	519	29	37	
4	1	1	0	0	511	508	506	519	28	37	
5	1	1	0	0	509	509	506	519	29	37	
6	1	1	0	0	506	510	507	520	29	37	
7	1	1	0	0	504	509	506	520	28	37	
8	1	1	0	0	509	514	506	520	28	37	
9	1	1	0	0	516	520	513	519	28	37	
10	1	1	0	0	517	517	513	519	28	37	
11	1	1	0	0	513	513	509	519	28	37	
12	1	1	0	0	507	515	511	519	28	37	
13	1	1	0	0	509	516	511	519	28	37	
14	1	1	0	0	508	516	512	520	28	37	
15	1	1	0	0	510	516	511	520	28	37	
0	1	1	0	0	509	512	509	519	28	37	
1	1	1	0	0	508	512	509	519	28	37	
2	1	1	0	0	508	513	511	519	28	37	
3	1	1	0	0	509	514	509	519	28	37	
4	1	1	0	0	510	514	510	519	28	37	
5	1	1	0	0	511	514	512	519	28	37	
6	1	1	0	0	511	513	511	518	28	37	
7	1	1	0	0	511	513	508	519	28	37	
8	1	1	0	0	508	512	509	518	28	37	
9	1	1	0	0	507	513	508	517	27	37	
10	1	1	0	0	511	512	507	517	27	37	
11	1	1	0	0	510	513	510	516	27	37	
12	1	1	0	0	511	511	507	516	27	37	
13	1	1	0	0	511	513	509	516	27	37	
14	1	1	0	0	510	511	509	516	27	37	
15	1	1	0	0	511	515	509	516	27	37	
0	1	1	0	0	512	514	509	516	27	37	
1	1	1	0	0	511	515	508	515	27	37	
2	1	1	0	0	511	516	510	515	27	37	
3	1	1	0	0	510	515	509	514	27	37	
4	1	1	0	0	510	514	508	514	27	37	
5	1	1	0	0	510	512	509	513	27	37	
6	1	1	0	0	512	512	508	513	27	37	
7	1	1	0	0	512	509	507	513	27	37	
8	1	1	0	0	512	510	509	512	27	37	
9	1	1	0	0	509	511	508	513	27	37	
10	1	1	0	0	506	514	508	512	27	37	
11	1	1	0	0	507	515	508	511	27	37	
12	1	1	0	0	509	515	507	512	27	37	
13	1	1	0	0	508	512	507	512	27	37	
14	1	1	0	0	509	510	508	512	27	37	
15	1	1	0	0	508	509	508	511	27	37	
0	1	1	0	0	508	511	509	511	27	37	
1	1	1	0	0	509	514	510	509	27	37	
2	1	1	0	0	514	516	509	509	27	37	
3	1	1	0	0	515	517	512	509	27	37	
4	1	1	0	0	511	519	512	510	27	37	
5	1	1	0	0	513	515	509	509	27	37	
6	1	1	0	0	512	518	510	510	28	37	
7	1	1	0	0	507	520	512	510	27	38	
8	1	1	0	0	502	512	508	510	27	38	
9	1	1	0	0	505	508	508	509	28	38	
10	1	1	0	0	508	511	509	508	27	38	
11	1	1	0	0	510	506	507	508	28	38	
12	1	1	0	0	509	507	506	508	28	38	
13	1	1	0	0	508	508	506	508	28	38	
14	1	1	0	0	509	507	506	508	28	38	
15	1	1	0	0	511	506	510	509	28	38	
0	1	1	0	0	513	508	511	509	28	38	
1	1	1	0	0	513	511	508	509	28	38	
2	1	1	0	0	513	513	508	510	28	38	
3	1	1	0	0	511	518	511	509	28	38	
4	1	1	0	0	511	517	512	511	28	38	
5	1	1	0	0	502	518	511	510	28	38	
6	1	1	0	0	507	515	508	511	28	38	
7	1	1	0	0	511	515	506	512	28	38	
8	1	1	0	0	510	512	508	511	28	38	
9	1	1	0	0	510	516	508	512	28	37	
10	1	1	0	0	511	517	509	512	28	37	
11	1	1	0	0	510	515	508	512	28	37	
12	1	1	0	0	511	510	508	513	28	37	
13	1	1	0	0	512	512	511	514	28	37	
14	1	1	0	0	511	507	510	515	29	37	
15	1	1	0	0	510	508	510	515	28	37	
0	1	1	0	0	514	510	511	515	28	37	
1	1	1	0	0	513	513	513	516	29	37	
2	1	1	0	0	517	519	515	516	28	37	
3	1	1	0	0	513	522	512	516	28	37	
4	1	1	0	0	508	521	510	517	28	37	
5	1	1	0	0	508	514	506	517	28	37	
6	1	1	0	0	508	511	506	517	29	37	
7	1	1	0	0	505	510	506	517	28	37	
8	1	1	0	0	505	507	503	518	28	37	
9	1	1	0	0	506	507	505	518	28	37	
10	1	1	0	0	508	507	505	519	28	37	
11	1	1	0	0	508	507	507	518	28	37	
12	1	1	0	0	511	508	509	519	28	37	
13	1	1	0	0	511	510	510	520	28	37	
14	1	1	0	0	510	515	510	520	28	37	
15	1	1	0	0	510	515	510	520	28	37	
0	1	1	0	0	513	513	510	520	28	37	
1	1	1	0	0	510	516	509	519	28	37	
2	1	1	0	0	510	513	510	519	28	37	
3	1	1	0	0	510	515	510	519	28	37	
4	1	1	0	0	510	514	510	519	28	37	
5	1	1	0	0	511	516	508	519	28	37	
6	1	1	0	0	510	515	513	519	28	37	
7	1	1	0	0	510	517	510	519	28	37	
8	1	1	0	0	511	515	510	519	28	37	
9	1	1	0	0	512	516	510	519	28	37	
10	1	1	0	0	510	518	510	519	27	37	
11	1	1	0	0	510	517	509	517	28	37	
12	1	1	0	0	512	513	509	517	27	37	
13	1	1	0	0	513	515	509	517	27	37	
14	1	1	0	0	511	512	511	517	28	37	
15	1	1	0	0	507	514	510	517	27	37	
0	1	1	0	0	507	514	509	516	27	37	
1	1	1	0	0	507	508	511	515	27	37	
2	1	1	0	0	507	506	506	516	27	37	
3	1	1	0	0	507	505	506	514	27	37	
4	1	1	0	0	508	507	504	515	27	37	
5	1	1	0	0	504	508	507	514	27	37	
6	1	1	0	0	509	509	507	514	27	37	
7	1	1	0	0	509	513	507	514	27	37	
8	1	1	0	0	511	514	511	513	27	37	
9	1	1	0	0	509	516	510	512	27	37	
10	1	1	0	0	509	514	510	512	27	37	
11	1	1	0	0	512	515	510	511	27	37	
12	1	1	0	0	508	514	510	512	27	37	
13	1	1	0	0	510	513	510	512	27	37	
14	1	1	0	0	512	512	508	512	27	37	
15	1	1	0	0	510	514	510	512	27	37	
0	1	1	0	0	512	516	509	511	27	37	
1	1	1	0	0	511	517	510	511	27	37	
2	1	1	0	0	509	514	511	511	27	37	
3	1	1	0	0	509	514	510	510	27	37	
4	1	1	0	0	510	516	508	511	27	37	
5	1	1	0	0	511	512	508	510	27	37	
6	1	1	0	0	508	511	509	510	27	37	
7	1	1	0	0	506	511	509	510	27	37	
8	1	1	0	0	508	511	507	510	27	37	
9	1	1	0	0	511	514	510	510	27	37	
10	1	1	0	0	513	519	511	510	27	37	
11	1	1	0	0	513	519	512	509	27	37	
12	1	1	0	0	507	517	510	510	27	37	
13	1	1	0	0	509	514	507	510	27	37	
14	1	1	0	0	510	515	508	510	28	37	
15	1	1	0	0	511	511	507	510	27	37	
0	1	1	0	0	511	509	507	510	27	37	
1	1	1	0	0	510	509	508	510	28	37	
2	1	1	0	0	510	512	507	510	27	38	
3	1	1	0	0	508	511	510	508	28	38	
4	1	1	0	0	512	514	512	509	28	38	
5	1	1	0	0	514	516	510	509	28	38	
6	1	1	0	0	508	519	508	510	28	38	
7	1	1	0	0	511	519	508	510	28	38	
8	1	1	0	0	509	513	509	510	28	38	
9	1	1	0	0	508	513	509	510	28	38	
10	1	1	0	0	504	505	506	510	28	38	
11	1	1	0	0	505	508	506	510	28	38	
12	1	1	0	0	506	508	505	510	28	38	
13	1	1	0	0	508	500	505	510	28	38	
14	1	1	0	0	507	505	507	510	28	38	
15	1	1	0	0	511	507	510	510	28	38	
0	1	1	0	0	509	507	511	509	28	38	
1	1	1	0	0	513	511	510	510	28	38	
2	1	1	0	0	514	514	510	510	28	38	
3	1	1	0	0	512	517	508	510	28	38	
4	1	1	0	0	512	520	509	511	28	38	
5	1	1	0	0	511	520	511	511	28	38	
6	1	1	0	0	511	521	509	511	29	38	
7	1	1	0	0	511	524	512	512	29	38	
8	1	1	0	0	506	519	511	511	29	38	
9	1	1	0	0	506	523	507	511	29	38	
10	1	1	0	0	510	516	509	511	28	38	
11	1	1	0	0	509	507	507	511	29	38	
12	1	1	0	0	510	501	507	511	28	38	
13	1	1	0	0	510	502	508	512	28	37	
14	1	1	0	0	512	507	509	512	29	37	
15	1	1	0	0	511	507	510	512	28	37	
0	1	1	0	0	511	511	512	512	28	37	
1	1	1	0	0	511	515	508	512	28	37	
2	1	1	0	0	512	515	510	513	28	37	
3	1	1	0	0	513	518	511	513	28	37	
4	1	1	0	0	508	517	508	513	28	37	
5	1	1	0	0	508	516	510	513	28	37	
6	1	1	0	0	510	515	508	513	29	37	
7	1	1	0	0	509	516	509	513	28	37	
8	1	1	0	0	509	513	507	513	28	37	
9	1	1	0	0	510	512	508	514	28	37	
10	1	1	0	0	508	508	506	514	28	37	
11	1	1	0	0	508	508	508	513	28	37	
12	1	1	0	0	508	508	507	514	28	37	
13	1	1	0	0	510	510	507	514	28	37	
14	1	1	0	0	511	511	509	515	28	37	
15	1	1	0	0	510	511	508	515	28	37	
0	1	1	0	0	511	513	513	515	28	37	
1	1	1	0	0	510	513	511	515	28	37	
2	1	1	0	0	509	512	511	515	28	37	
3	1	1	0	0	509	511	509	515	28	37	
4	1	1	0	0	511	514	508	515	28	37	
5	1	1	0	0	510	515	509	515	28	37	
6	1	1	0	0	510	515	509	515	28	37	
7	1	1	0	0	509	516	510	516	28	37	
8	1	1	0	0	508	515	510	515	28	37	
9	1	1	0	0	510	513	510	515	28	37	
10	1	1	0	0	512	514	508	515	27	37	
11	1	1	0	0	512	515	508	515	27	37	
12	1	1	0	0	511	516	510	515	28	37	
13	1	1	0	0	510	515	511	515	28	37	
14	1	1	0	0	512	517	510	515	28	37	
15	1	1	0	0	512	516	510	515	27	37	
0	1	1	0	0	511	517	512	515	27	37	
1	1	1	0	0	510	516	511	514	27	37	
2	1	1	0	0	512	516	510	515	27	37	
3	1	1	0	0	511	514	507	514	27	37	
4	1	1	0	0	509	513	508	515	27	37	
5	1	1	0	0	508	510	506	515	27	37	
6	1	1	0	0	508	510	507	515	28	37	
7	1	1	0	0	507	507	507	515	27	37	
8	1	1	0	0	508	508	509	515	27	37	
9	1	1	0	0	510	507	507	515	27	37	
10	1	1	0	0	509	509	509	515	27	37	
11	1	1	0	0	512	508	507	515	27	37	
12	1	1	0	0	509	513	509	515	27	37	
13	1	1	0	0	510	512	509	514	27	37	
14	1	1	0	0	510	515	509	513	28	37	
15	1	1	0	0	508	514	510	514	27	37	
0	1	1	0	0	509	515	510	514	27	37	
1	1	1	0	0	511	515	510	514	27	37	
2	1	1	0	0	509	516	507	514	27	37	
3	1	1	0	0	510	515	508	513	27	37	
4	1	1	0	0	510	516	509	514	27	37	
5	1	1	0	0	508	515	509	514	27	37	
6	1	1	0	0	507	515	507	514	28	37	
7	1	1	0	0	508	512	508	514	27	37	
8	1	1	0	0	512	512	510	513	27	37	
9	1	1	0	0	510	511	510	513	27	37	
10	1	1	0	0	510	508	511	513	27	37	
11	1	1	0	0	510	510	510	512	28	37	
12	1	1	0	0	514	511	511	512	28	37	
13	1	1	0	0	513	513	510	512	28	37	
14	1	1	0	0	513	515	512	513	28	37	
15	1	1	0	0	511	513	510	513	28	37	
0	1	1	0	0	508	513	510	512	28	37	
1	1	1	0	0	508	514	511	513	28	37	
2	1	1	0	0	508	514	507	513	27	37	
3	1	1	0	0	507	518	507	512	28	37	
4	1	1	0	0	507	519	505	513	28	37	
5	1	1	0	0	508	513	506	512	28	37	
6	1	1	0	0	510	510	508	512	28	37	
7	1	1	0	0	508	509	510	512	28	37	
8	1	1	0	0	510	511	509	511	28	37	
9	1	1	0	0	512	511	507	512	28	37	
10	1	1	0	0	512	510	508	512	28	37	
11	1	1	0	0	511	512	510	512	28	37	
12	1	1	0	0	510	514	511	512	28	37	
13	1	1	0	0	506	511	508	513	28	37	
14	1	1	0	0	510	511	510	512	28	37	
15	1	1	0	0	510	512	508	513	28	37	
0	1	1	0	0	511	512	509	513	28	37	
1	1	1	0	0	510	515	511	513	28	37	
2	1	1	0	0	510	513	509	513	28	37	
3	1	1	0	0	512	512	508	512	28	37	
4	1	1	0	0	512	515	511	512	28	37	
5	1	1	0	0	511	515	509	512	28	37	
6	1	1	0	0	510	518	511	513	28	37	
7	1	1	0	0	510	515	509	513	28	37	
8	1	1	0	0	510	516	508	513	28	37	
9	1	1	0	0	512	513	510	513	28	37	
10	1	1	0	0	510	514	508	514	28	37	
11	1	1	0	0	511	514	510	512	28	37	
12	1	1	0	0	512	512	508	513	28	37	
13	1	1	0	0	507	514	510	514	28	37	
14	1	1	0	0	507	513	509	513	28	37	
15	1	1	0	0	508	515	508	513	28	37	
0	1	1	0	0	511	519	509	513	28	37	
1	1	1	0	0	511	517	507	512	28	37	
2	1	1	0	0	508	511	511	512	28	37	
3	1	1	0	0	506	512	510	512	28	37	
4	1	1	0	0	508	513	507	513	28	37	
5	1	1	0	0	508	508	509	512	28	37	
6	1	1	0	0	510	507	509	513	28	37	
7	1	1	0	0	512	510	508	513	28	37	
8	1	1	0	0	510	510	509	513	28	37	
9	1	1	0	0	512	511	509	513	28	37	
10	1	1	0	0	510	511	508	513	27	37	
11	1	1	0	0	510	513	509	512	28	37	
12	1	1	0	0	509	513	511	512	28	37	
13	1	1	0	0	508	515	510	512	28	37	
14	1	1	0	0	507	513	510	512	28	37	
15	1	1	0	0	508	510	510	513	28	37	
0	1	1	0	0	511	514	510	512	28	37	
1	1	1	0	0	512	516	510	513	28	37	
2	1	1	0	0	511	516	511	513	27	37	
3	1	1	0	0	510	515	508	512	28	37	
4	1	1	0	0	510	512	507	514	27	37	
5	1	1	0	0	510	512	508	515	28	37	
6	1	1	0	0	513	511	507	514	28	37	
7	1	1	0	0	512	513	509	515	28	37	
8	1	1	0	0	513	513	508	514	28	37	
9	1	1	0	0	510	515	511	514	27	37	
10	1	1	0	0	512	515	509	513	27	37	
11	1	1	0	0	510	515	508	513	27	37	
12	1	1	0	0	508	517	510	514	27	37	
13	1	1	0	0	509	517	508	514	27	37	
14	1	1	0	0	508	518	509	515	28	37	
15	1	1	0	0	509	519	509	515	27	37	
0	1	1	0	0	509	514	509	515	27	37	
1	1	1	0	0	505	511	511	515	27	37	
2	1	1	0	0	507	507	510	515	27	37	
3	1	1	0	0	509	507	509	515	27	37	
4	1	1	0	0	510	507	509	515	27	37	
5	1	1	0	0	509	511	507	515	28	37	
6	1	1	0	0	508	511	510	515	28	37	
7	1	1	0	0	509	515	509	515	27	37	
8	1	1	0	0	511	512	511	515	27	37	
9	1	1	0	0	511	515	510	515	27	37	
10	1	1	0	0	514	515	510	515	27	37	
11	1	1	0	0	510	520	511	513	27	37	
12	1	1	0	0	512	521	510	515	27	37	
13	1	1	0	0	510	518	512	516	27	37	
14	1	1	0	0	511	515	509	516	28	37	
15	1	1	0	0	511	510	508	516	27	37	
0	1	1	0	0	510	506	506	515	28	37	
1	1	1	0	0	510	508	507	515	28	37	
2	1	1	0	0	508	503	505	515	27	37	
3	1	1	0	0	506	501	507	514	28	37	
4	1	1	0	0	507	507	507	514	27	37	
5	1	1	0	0	507	507	505	515	28	37	
6	1	1	0	0	508	512	507	514	28	37	
7	1	1	0	0	508	512	508	515	28	37	
8	1	1	0	0	511	516	510	514	28	37	
9	1	1	0	0	513	515	509	513	28	37	
10	1	1	0	0	509	516	511	514	27	37	
11	1	1	0	0	510	518	510	513	28	37	
12	1	1	0	0	512	515	509	514	28	37	
13	1	1	0	0	511	512	510	513	28	37	
14	1	1	0	0	511	514	508	514	28	37	
15	1	1	0	0	510	515	511	513	28	37	
0	1	1	0	0	510	515	510	513	28	37	
1	1	1	0	0	510	516	509	513	28	37	
2	1	1	0	0	510	514	510	512	27	37	
3	1	1	0	0	511	515	508	512	28	37	
4	1	1	0	0	509	513	509	513	28	37	
5	1	1	0	0	512	512	510	512	28	37	
6	1	1	0	0	511	515	508	512	28	37	
7	1	1	0	0	510	514	509	513	28	37	
8	1	1	0	0	510	515	509	513	28	37	
9	1	1	0	0	511	514	508	512	28	37	
10	1	1	0	0	511	514	510	512	27	37	
11	1	1	0	0	510	515	509	511	28	37	
12	1	1	0	0	510	514	509	512	28	37	
13	1	1	0	0	508	512	509	511	28	37	
14	1	1	0	0	505	512	509	511	28	37	
15	1	1	0	0	510	511	511	512	28	37	
0	1	1	0	0	512	512	512	511	28	37	
1	1	1	0	0	509	515	508	512	28	37	
2	1	1	0	0	510	514	510	511	27	37	
3	1	1	0	0	511	514	508	511	28	37	
4	1	1	0	0	509	515	508	511	28	37	
5	1	1	0	0	510	515	510	511	28	37	
6	1	1	0	0	507	512	509	511	28	37	
7	1	1	0	0	508	512	508	511	28	37	
8	1	1	0	0	506	506	507	510	28	37	
9	1	1	0	0	509	506	508	511	28	37	
10	1	1	0	0	511	509	510	510	27	37	
11	1	1	0	0	511	510	506	510	28	37	
12	1	1	0	0	511	511	508	510	28	37	
13	1	1	0	0	512	513	509	510	28	37	
14	1	1	0	0	509	512	509	511	28	37	
15	1	1	0	0	512	513	508	510	28	37	
0	1	1	0	0	511	516	506	510	28	37	
1	1	1	0	0	511	521	510	510	28	37	
2	1	1	0	0	508	514	508	510	27	37	
3	1	1	0	0	513	514	508	509	28	37	
4	1	1	0	0	511	514	512	509	28	37	
5	1	1	0	0	510	515	510	509	28	37	
6	1	1	0	0	512	514	509	510	28	37	
7	1	1	0	0	508	515	510	510	28	37	
8	1	1	0	0	508	511	508	509	27	37	
9	1	1	0	0	509	510	508	509	27	37	
10	1	1	0	0	508	510	508	509	27	37	
11	1	1	0	0	508	510	507	508	27	37	
12	1	1	0	0	509	510	511	509	27	37	
13	1	1	0	0	510	513	508	510	27	37	
14	1	1	0	0	512	514	510	509	28	37	
15	1	1	0	0	510	514	509	510	28	37	
0	1	1	0	0	511	514	510	509	27	37	
1	1	1	0	0	508	514	511	509	27	37	
2	1	1	0	0	509	513	508	509	27	37	
3	1	1	0	0	508	512	507	508	27	37	
4	1	1	0	0	509	510	506	509	27	37	
5	1	1	0	0	510	509	508	510	27	37	
6	1	1	0	0	511	509	508	510	28	37	
7	1	1	0	0	511	509	510	510	27	37	
8	1	1	0	0	512	511	512	510	27	37	
9	1	1	0	0	511	514	508	510	27	37	
10	1	1	0	0	512	514	509	511	27	37	
11	1	1	0	0	509	513	510	510	27	37	
12	1	1	0	0	511	515	509	510	27	37	
13	1	1	0	0	509	516	508	510	27	37	
14	1	1	0	0	508	515	508	510	28	37	
15	1	1	0	0	510	516	509	510	27	37	
0	1	1	0	0	509	518	511	510	27	37	
1	1	1	0	0	510	515	509	511	27	37	
2	1	1	0	0	512	514	508	511	27	37	
3	1	1	0	0	511	514	508	511	27	37	
4	1	1	0	0	510	516	508	511	27	37	
5	1	1	0	0	512	516	510	511	27	37	
6	1	1	0	0	512	518	512	512	28	37	
7	1	1	0	0	509	515	512	512	27	37	
8	1	1	0	0	510	514	508	511	27	37	
9	1	1	0	0	508	512	508	511	27	37	
10	1	1	0	0	508	513	509	511	27	37	
11	1	1	0	0	507	510	508	510	27	37	
12	1	1	0	0	506	506	505	511	27	37	
13	1	1	0	0	506	506	507	511	27	37	
14	1	1	0	0	508	510	510	511	28	37	
15	1	1	0	0	511	512	508	511	27	37	
0	1	1	0	0	512	511	507	511	27	37	
1	1	1	0	0	512	511	509	510	27	37	
2	1	1	0	0	511	512	508	510	27	37	
3	1	1	0	0	512	513	510	510	27	37	
4	1	1	0	0	509	513	511	510	27	37	
5	1	1	0	0	511	515	509	510	27	37	
6	1	1	0	0	511	515	511	510	28	37	
7	1	1	0	0	509	517	511	509	27	37	
8	1	1	0	0	508	517	508	508	27	37	
9	1	1	0	0	511	515	509	508	27	37	
10	1	1	0	0	510	512	508	509	27	37	
11	1	1	0	0	510	515	510	508	27	37	
12	1	1	0	0	512	521	511	509	27	37	
13	1	1	0	0	515	520	511	509	27	37	
14	1	1	0	0	514	517	512	508	28	37	
15	1	1	0	0	512	515	510	509	27	37	
0	1	1	0	0	512	515	512	508	27	37	
1	1	1	0	0	511	517	512	508	27	37	
2	1	1	0	0	511	516	512	508	27	37	
3	1	1	0	0	506	515	507	506	27	37	
4	1	1	0	0	506	509	506	507	27	37	
5	1	1	0	0	507	507	505	507	27	37	
6	1	1	0	0	505	504	504	507	28	37	
7	1	1	0	0	506	499	505	507	27	37	
8	1	1	0	0	507	499	506	506	27	37	
9	1	1	0	0	509	499	507	507	27	37	
10	1	1	0	0	508	502	509	507	27	37	
11	1	1	0	0	507	508	507	507	27	37	
12	1	1	0	0	509	512	508	507	27	37	
13	1	1	0	0	510	513	509	507	28	37	
14	1	1	0	0	508	515	508	507	28	37	
15	1	1	0	0	509	515	510	507	27	37	
0	1	1	0	0	511	516	510	507	28	37	
1	1	1	0	0	514	516	511	507	28	37	
2	1	1	0	0	516	517	510	506	27	37	
3	1	1	0	0	512	521	511	506	28	37	
4	1	1	0	0	510	519	511	507	27	37	
5	1	1	0	0	512	519	512	507	27	37	
6	1	1	0	0	511	519	513	507	28	37	
7	1	1	0	0	511	518	513	508	27	37	
8	1	1	0	0	512	515	513	507	28	37	
9	1	1	0	0	512	513	511	508	28	37	
10	1	1	0	0	513	512	508	507	27	37	
11	1	1	0	0	509	511	505	507	28	37	
12	1	1	0	0	505	512	504	507	28	37	
13	1	1	0	0	507	511	505	507	28	38	
14	1	1	0	0	505	508	503	507	28	38	
15	1	1	0	0	505	508	507	507	28	38	
0	1	1	0	0	507	512	508	506	28	38	
1	1	1	0	0	505	509	510	507	27	38	
2	1	1	0	0	509	508	508	507	27	38	
3	1	1	0	0	512	513	509	506	27	38	
4	1	1	0	0	511	509	511	507	27	37	
5	1	1	0	0	513	508	509	508	28	38	
6	1	1	0	0	513	512	510	507	28	38	
7	1	1	0	0	510	519	511	508	27	38	
8	1	1	0	0	516	525	512	507	28	38	
9	1	1	0	0	511	522	512	507	27	38	
10	1	1	0	0	509	517	510	507	27	38	
11	1	1	0	0	513	516	508	507	27	38	
12	1	1	0	0	511	516	511	506	27	38	
13	1	1	0	0	503	515	512	507	27	38	
14	1	1	0	0	505	512	509	507	28	38	
15	1	1	0	0	507	506	507	508	27	38	
0	1	1	0	0	508	506	503	507	27	37	
1	1	1	0	0	512	505	502	507	27	37	
2	1	1	0	0	511	513	508	507	27	37	
3	1	1	0	0	513	516	513	507	27	37	
4	1	1	0	0	513	511	510	507	27	38	
5	1	1	0	0	509	511	507	507	28	37	
6	1	1	0	0	510	514	510	507	28	37	
7	1	1	0	0	508	515	512	507	27	37	
8	1	1	0	0	511	515	510	507	28	37	
9	1	1	0	0	509	513	510	506	27	37	
10	1	1	0	0	509	513	507	506	27	37	
11	1	1	0	0	509	512	508	507	27	37	
12	1	1	0	0	510	514	509	507	27	37	
13	1	1	0	0	511	512	509	507	28	37	
14	1	1	0	0	509	514	509	507	28	37	
15	1	1	0	0	507	513	509	507	28	37	
0	1	1	0	0	509	514	511	508	28	37	
1	1	1	0	0	508	515	513	507	28	37	
2	1	1	0	0	506	518	514	508	27	37	
3	1	1	0	0	510	516	511	507	28	37	
4	1	1	0	0	510	513	509	508	28	37	
5	1	1	0	0	508	506	506	508	28	37	
6	1	1	0	0	508	506	508	507	28	37	
7	1	1	0	0	508	510	516	507	28	37	
8	1	1	0	0	507	511	512	507	28	37	
9	1	1	0	0	511	512	512	507	28	37	
10	1	1	0	0	512	508	511	508	27	37	
11	1	1	0	0	512	513	511	506	28	37	
12	1	1	0	0	513	515	503	507	28	37	
13	1	1	0	0	514	516	502	507	28	37	
14	1	1	0	0	511	518	503	507	28	37	
15	1	1	0	0	509	515	502	507	28	37	
0	1	1	0	0	510	514	502	506	28	37	
1	1	1	0	0	510	513	507	506	28	37	
2	1	1	0	0	510	512	509	505	28	37	
3	1	1	0	0	508	510	513	504	28	37	
4	1	1	0	0	509	505	520	505	28	37	
5	1	1	0	0	506	507	516	505	28	37	
6	1	1	0	0	505	514	509	505	28	37	
7	1	1	0	0	507	514	506	505	28	37	
8	1	1	0	0	511	508	497	504	28	37	
9	1	1	0	0	514	516	511	504	28	37	
10	1	1	0	0	513	520	519	505	28	37	
11	1	1	0	0	516	517	514	504	28	37	
12	1	1	0	0	510	516	513	504	28	37	
13	1	1	0	0	509	514	504	504	28	37	
14	1	1	0	0	512	518	499	504	28	37	
15	1	1	0	0	505	514	493	504	28	37	
0	1	1	0	0	508	514	497	503	28	37	
1	1	1	0	0	507	510	501	503	28	37	
2	1	1	0	0	504	510	503	503	28	37	
3	1	1	0	0	508	508	510	503	28	37	
4	1	1	0	0	506	513	516	503	28	37	
5	1	1	0	0	507	522	523	503	28	37	
6	1	1	0	0	504	513	516	503	28	37	
7	1	1	0	0	500	494	500	504	28	37	
8	1	1	0	0	506	486	499	504	28	37	
9	1	1	0	0	524	507	512	503	28	37	
10	1	1	0	0	526	520	516	504	28	37	
11	1	1	0	0	522	526	515	502	28	38	
12	1	1	0	0	511	519	508	502	28	38	
13	1	1	0	0	512	515	500	502	28	38	
14	1	1	0	0	508	511	504	502	28	38	
15	1	1	0	0	506	512	509	503	28	38	
0	1	1	0	0	503	514	515	502	28	38	
1	1	1	0	0	505	518	515	502	28	37	
2	1	1	0	0	509	516	509	503	27	38	
3	1	1	0	0	508	513	508	502	28	38	
4	1	1	0	0	500	510	509	503	28	38	
5	1	1	0	0	498	513	511	502	28	38	
6	1	1	0	0	506	505	516	503	28	38	
7	1	1	0	0	503	497	507	503	28	38	
8	1	1	0	0	492	507	507	503	28	38	
9	1	1	0	0	505	520	513	502	28	37	
10	1	1	0	0	542	537	521	503	27	38	
11	1	1	0	0	529	531	518	502	28	37	
12	1	1	0	0	520	510	495	503	28	38	
13	1	1	0	0	506	499	493	503	28	37	
14	1	1	0	0	513	513	510	503	28	37	
15	1	1	0	0	520	518	524	502	28	37	
0	1	1	0	0	511	519	526	502	28	37	
1	1	1	0	0	506	516	531	502	28	37	
2	1	1	0	0	515	516	533	502	28	37	
3	1	1	0	0	519	511	518	501	28	37	
4	1	1	0	0	511	508	492	500	28	37	
5	1	1	0	0	508	511	483	500	28	37	
6	1	1	0	0	505	513	477	499	28	37	
7	1	1	0	0	503	515	481	500	28	37	
8	1	1	0	0	507	517	493	499	28	37	
9	1	1	0	0	506	512	507	499	28	37	
10	1	1	0	0	497	507	510	498	28	37	
11	1	1	0	0	484	507	515	499	28	37	
12	1	1	0	0	495	512	522	499	28	37	
13	1	1	0	0	540	528	519	499	28	37	
14	1	1	0	0	525	514	510	499	28	37	
15	1	1	0	0	512	510	507	499	28	37	
0	1	1	0	0	515	511	507	498	28	37	
1	1	1	0	0	503	510	520	498	28	37	
2	1	1	0	0	505	504	521	498	28	37	
3	1	1	0	0	508	511	524	496	28	37	
4	1	1	0	0	507	513	520	497	28	37	
5	1	1	0	0	511	515	519	497	28	37	
6	1	1	0	0	511	518	513	497	28	37	
7	1	1	0	0	510	517	505	497	28	37	
8	1	1	0	0	509	519	497	497	28	37	
9	1	1	0	0	511	512	489	497	28	37	
10	1	1	0	0	508	501	490	498	28	37	
11	1	1	0	0	507	508	499	496	28	37	
12	1	1	0	0	510	511	504	497	28	37	
13	1	1	0	0	507	514	506	497	28	37	
14	1	1	0	0	505	511	508	497	29	37	
15	1	1	0	0	511	515	510	497	28	37	
0	1	1	0	0	511	515	515	496	28	37	
1	1	1	0	0	510	515	511	497	28	37	
2	1	1	0	0	512	512	511	496	28	37	
3	1	1	0	0	512	515	512	496	28	37	
4	1	1	0	0	513	513	510	497	28	37	
5	1	1	0	0	510	515	514	497	28	37	
6	1	1	0	0	503	517	512	497	29	37	
7	1	1	0	0	507	513	507	497	28	37	
8	1	1	0	0	504	510	506	497	28	37	
9	1	1	0	0	507	516	511	497	28	37	
10	1	1	0	0	502	518	515	497	28	37	
11	1	1	0	0	519	513	511	496	28	37	
12	1	1	0	0	532	508	501	496	28	37	
13	1	1	0	0	501	502	505	496	28	37	
14	1	1	0	0	504	515	512	496	29	37	
15	1	1	0	0	504	515	511	497	28	37	
0	1	1	0	0	510	516	512	498	28	37	
1	1	1	0	0	515	515	517	497	28	37	
2	1	1	0	0	516	516	515	498	28	37	
3	1	1	0	0	515	514	508	497	28	37	
4	1	1	0	0	492	507	510	499	28	37	
5	1	1	0	0	511	511	509	498	28	37	
6	1	1	0	0	529	516	514	498	29	37	
7	1	1	0	0	508	519	510	499	28	37	
8	1	1	0	0	515	511	504	498	28	37	
9	1	1	0	0	505	512	503	499	28	37	
10	1	1	0	0	511	516	519	499	28	37	
11	1	1	0	0	510	511	515	498	28	37	
12	1	1	0	0	510	499	489	499	28	37	
13	1	1	0	0	471	494	494	499	28	37	
14	1	1	0	0	494	508	507	500	28	37	
15	1	1	0	0	530	519	518	500	28	37	
0	1	1	0	0	542	527	517	500	28	37	
1	1	1	0	0	516	512	505	500	28	37	
2	1	1	0	0	509	512	506	499	28	37	
3	1	1	0	0	508	516	508	499	28	37	
4	1	1	0	0	510	517	505	499	28	37	
5	1	1	0	0	515	516	504	499	28	37	
6	1	1	0	0	512	514	507	499	28	37	
7	1	1	0	0	506	515	511	499	28	37	
8	1	1	0	0	495	505	511	499	28	37	
9	1	1	0	0	512	518	516	499	28	37	
10	1	1	0	0	513	516	515	500	28	37	
11	1	1	0	0	507	512	512	499	28	37	
12	1	1	0	0	508	510	511	500	28	37	
13	1	1	0	0	526	514	516	500	28	37	
14	1	1	0	0	508	533	539	500	28	37	
15	1	1	0	0	526	540	536	500	28	37	
0	1	1	0	0	526	511	514	500	28	37	
1	1	1	0	0	480	480	503	500	28	37	
2	1	1	0	0	501	499	519	499	28	37	
3	1	1	0	0	510	513	518	497	28	37	
4	1	1	0	0	509	513	494	499	28	37	
5	1	1	0	0	509	512	484	498	28	37	
6	1	1	0	0	508	511	479	499	28	37	
7	1	1	0	0	512	516	482	500	28	37	
8	1	1	0	0	512	512	492	499	28	37	
9	1	1	0	0	509	512	502	500	28	37	
10	1	1	0	0	508	514	508	500	28	37	
11	1	1	0	0	512	516	504	500	28	37	
12	1	1	0	0	509	513	502	500	28	37	
13	1	1	0	0	507	518	524	501	28	37	
14	1	1	0	0	511	519	524	501	29	37	
15	1	1	0	0	511	510	510	502	28	37	
0	1	1	0	0	498	505	511	502	28	37	
1	1	1	0	0	513	511	517	502	28	37	
2	1	1	0	0	508	509	523	503	28	37	
3	1	1	0	0	506	512	525	503	28	37	
4	1	1	0	0	501	510	526	504	28	37	
5	1	1	0	0	507	511	502	505	28	37	
6	1	1	0	0	507	515	493	505	29	37	
7	1	1	0	0	520	525	495	506	28	37	
8	1	1	0	0	519	523	491	507	28	37	
9	1	1	0	0	513	512	496	506	28	37	
10	1	1	0	0	501	507	495	507	28	37	
11	1	1	0	0	507	510	504	506	28	37	
12	1	1	0	0	515	511	513	507	28	37	
13	1	1	0	0	510	513	518	508	28	37	
14	1	1	0	0	511	512	514	508	29	37	
15	1	1	0	0	514	506	513	510	28	37	
0	1	1	0	0	524	518	515	509	28	37	
1	1	1	0	0	513	515	512	510	28	37	
2	1	1	0	0	510	519	513	511	28	37	
3	1	1	0	0	509	517	515	510	28	37	
4	1	1	0	0	509	509	511	511	28	37	
5	1	1	0	0	500	508	516	511	28	37	
6	1	1	0	0	499	511	514	512	28	37	
7	1	1	0	0	509	514	508	512	28	37	
8	1	1	0	0	514	513	504	512	28	37	
9	1	1	0	0	512	513	511	511	28	37	
10	1	1	0	0	515	513	512	511	28	37	
11	1	1	0	0	508	513	509	511	28	37	
12	1	1	0	0	506	514	507	512	28	37	
13	1	1	0	0	508	510	508	512	28	37	
14	1	1	0	0	510	513	509	513	28	37	
15	1	1	0	0	508	518	512	513	28	37	
0	1	1	0	0	510	513	508	513	28	37	
1	1	1	0	0	508	510	508	512	28	37	
2	1	1	0	0	504	511	508	513	28	37	
3	1	1	0	0	509	513	509	512	28	37	
4	1	1	0	0	513	511	508	513	28	37	
5	1	1	0	0	512	509	510	512	28	37	
6	1	1	0	0	507	509	507	512	28	36	
7	1	1	0	0	499	512	506	513	28	36	
8	1	1	0	0	497	509	506	513	28	36	
9	1	1	0	0	518	521	511	513	28	36	
10	1	1	0	0	514	511	512	513	27	36	
11	1	1	0	0	517	515	512	512	28	36	
12	1	1	0	0	517	517	511	513	28	36	
13	1	1	0	0	507	513	511	513	28	36	
14	1	1	0	0	506	512	510	513	28	36	
15	1	1	0	0	516	515	513	512	28	36	
0	1	1	0	0	518	512	510	512	28	36	
1	1	1	0	0	513	513	505	512	27	36	
2	1	1	0	0	505	509	504	512	27	36	
3	1	1	0	0	511	514	509	512	27	36	
4	1	1	0	0	509	515	510	513	27	36	
5	1	1	0	0	509	515	510	512	27	36	
6	1	1	0	0	509	516	512	513	28	36	
7	1	1	0	0	514	516	513	514	27	36	
8	1	1	0	0	501	511	506	515	27	36	
9	1	1	0	0	501	513	507	515	27	36	
10	1	1	0	0	512	511	504	514	27	36	
11	1	1	0	0	510	515	508	514	27	36	
12	1	1	0	0	512	516	510	515	27	36	
13	1	1	0	0	508	507	504	514	27	36	
14	1	1	0	0	502	500	502	515	28	36	
15	1	1	0	0	510	509	506	515	27	36	
0	1	1	0	0	507	515	509	515	27	36	
1	1	1	0	0	510	518	507	516	27	36	
2	1	1	0	0	508	515	509	515	27	36	
3	1	1	0	0	504	511	507	515	27	36	
4	1	1	0	0	505	512	508	515	27	36	
5	1	1	0	0	516	514	507	516	27	36	
6	1	1	0	0	517	513	511	516	27	36	
7	1	1	0	0	517	519	515	516	27	36	
8	1	1	0	0	515	515	512	516	27	36	
9	1	1	0	0	507	514	509	515	27	36	
10	1	1	0	0	508	512	508	515	27	36	
11	1	1	0	0	510	512	509	514	27	36	
12	1	1	0	0	512	516	510	515	27	36	
13	1	1	0	0	510	515	511	515	27	36	
14	1	1	0	0	511	515	512	515	27	36	
15	1	1	0	0	512	513	512	515	27	36	
0	1	1	0	0	511	515	513	516	27	36	
1	1	1	0	0	511	515	512	516	27	36	
2	1	1	0	0	512	514	510	516	27	36	
3	1	1	0	0	513	514	511	516	27	36	
4	1	1	0	0	518	514	511	516	27	36	
5	1	1	0	0	515	515	509	516	27	36	
6	1	1	0	0	504	515	507	516	27	36	
7	1	1	0	0	508	514	506	516	27	36	
8	1	1	0	0	518	516	513	516	27	36	
9	1	1	0	0	517	514	512	515	27	36	
10	1	1	0	0	494	505	503	515	27	36	
11	1	1	0	0	491	503	500	515	27	36	
12	1	1	0	0	501	508	504	516	27	36	
13	1	1	0	0	506	512	505	517	27	36	
14	1	1	0	0	510	506	507	517	27	36	
15	1	1	0	0	511	502	506	517	27	36	
0	1	1	0	0	510	506	505	517	27	36	
1	1	1	0	0	514	511	505	517	27	36	
2	1	1	0	0	512	514	507	517	27	36	
3	1	1	0	0	512	516	511	516	27	36	
4	1	1	0	0	511	517	512	517	27	36	
5	1	1	0	0	511	516	511	517	27	36	
6	1	1	0	0	512	517	515	517	27	36	
7	1	1	0	0	511	517	511	517	27	36	
8	1	1	0	0	510	515	510	518	27	36	
9	1	1	0	0	510	515	511	518	27	36	
10	1	1	0	0	508	515	511	518	27	36	
11	1	1	0	0	511	516	509	518	27	35	
12	1	1	0	0	514	520	511	518	27	35	
13	1	1	0	0	513	529	512	519	27	36	
14	1	1	0	0	502	537	513	518	27	36	
15	1	1	0	0	496	532	509	518	27	36	
0	1	1	0	0	500	528	510	517	27	36	
1	1	1	0	0	508	521	510	517	27	35	
2	1	1	0	0	510	513	510	517	26	36	
3	1	1	0	0	510	500	509	516	27	36	
4	1	1	0	0	512	489	509	516	27	35	
5	1	1	0	0	516	455	504	516	26	35	
6	1	1	0	0	521	457	504	516	27	35	
7	1	1	0	0	519	501	508	516	26	35	
8	1	1	0	0	523	530	508	515	26	35	
9	1	1	0	0	512	540	509	515	26	35	
10	1	1	0	0	504	534	508	515	26	35	
11	1	1	0	0	503	519	508	514	26	35	
12	1	1	0	0	507	514	506	513	26	35	
13	1	1	0	0	511	516	508	512	26	35	
14	1	1	0	0	512	512	508	512	27	35	
15	1	1	0	0	518	508	509	512	26	35	
0	1	1	0	0	519	510	509	511	26	35	
1	1	1	0	0	507	527	508	510	26	35	
2	1	1	0	0	503	553	512	510	26	35	
3	1	1	0	0	504	558	515	509	26	35	
4	1	1	0	0	504	576	517	510	26	35	
5	1	1	0	0	472	582	520	510	26	35	
6	1	1	0	0	471	550	516	510	26	35	
7	1	1	0	0	489	499	507	511	26	35	
8	1	1	0	0	516	462	506	511	26	35	
9	1	1	0	0	547	459	504	510	26	35	
10	1	1	0	0	555	455	508	510	26	35	
11	1	1	0	0	552	389	498	509	26	35	
12	1	1	0	0	539	387	486	509	26	36	
13	1	1	0	0	519	479	488	508	26	36	
14	1	1	0	0	509	542	497	508	26	36	
15	1	1	0	0	505	566	516	508	26	36	
0	1	1	0	0	496	540	520	507	26	36	
1	1	1	0	0	508	500	511	508	26	36	
2	1	1	0	0	510	455	507	507	26	36	
3	1	1	0	0	527	473	510	507	26	36	
4	1	1	0	0	532	510	513	508	26	36	
5	1	1	0	0	516	538	513	508	26	36	
6	1	1	0	0	511	550	512	509	26	36	
7	1	1	0	0	478	553	513	509	26	36	
8	1	1	0	0	465	561	516	509	26	36	
9	1	1	0	0	473	567	514	510	26	36	
10	1	1	0	0	459	604	515	510	26	37	
11	1	1	0	0	430	641	518	510	26	37	
12	1	1	0	0	426	629	519	511	26	37	
13	1	1	0	0	477	596	519	512	26	37	
14	1	1	0	0	552	541	523	512	27	37	
15	1	1	0	0	562	476	521	512	26	37	
0	1	1	0	0	586	384	508	512	27	37	
1	1	1	0	0	611	270	493	512	27	37	
2	1	1	0	0	600	310	488	511	26	37	
3	1	1	0	0	576	463	492	511	27	38	
4	1	1	0	0	531	581	502	511	27	38	
5	1	1	0	0	495	607	508	511	27	38	
6	1	1	0	0	479	632	519	510	27	38	
7	1	1	0	0	468	652	522	510	27	38	
8	1	1	0	0	467	642	520	510	27	38	
9	1	1	0	0	473	577	521	510	27	38	
10	1	1	0	0	507	452	506	510	26	38	
11	1	1	0	0	512	371	499	510	27	38	
12	1	1	0	0	527	345	503	511	27	38	
13	1	1	0	0	535	270	492	510	27	39	
14	1	1	0	0	552	340	487	510	27	39	
15	1	1	0	0	565	464	492	511	27	39	
0	1	1	0	0	556	531	492	511	27	39	
1	1	1	0	0	523	569	499	510	27	39	
2	1	1	0	0	493	569	510	510	27	39	
3	1	1	0	0	503	566	518	509	27	39	
4	1	1	0	0	507	561	514	510	28	39	
5	1	1	0	0	487	560	518	510	28	39	
6	1	1	0	0	482	559	513	511	28	39	
7	1	1	0	0	476	545	508	512	28	39	
8	1	1	0	0	487	541	513	512	28	39	
9	1	1	0	0	484	529	501	512	28	39	
10	1	1	0	0	496	540	508	513	28	39	
11	1	1	0	0	504	533	508	512	28	39	
12	1	1	0	0	512	535	519	513	29	39	
13	1	1	0	0	513	547	527	514	29	39	
14	1	1	0	0	485	549	511	514	29	39	
15	1	1	0	0	483	554	516	515	29	39	
0	1	1	0	0	496	545	520	515	29	39	
1	1	1	0	0	486	523	515	516	29	39	
2	1	1	0	0	476	514	512	518	29	39	
3	1	1	0	0	502	495	513	519	30	39	
4	1	1	0	0	531	488	515	520	30	39	
5	1	1	0	0	533	475	512	521	30	39	
6	1	1	0	0	527	470	506	523	31	39	
7	1	1	0	0	515	484	503	524	31	39	
8	1	1	0	0	510	494	501	525	31	38	
9	1	1	0	0	513	529	504	526	31	38	
10	1	1	0	0	511	532	510	527	31	38	
11	1	1	0	0	502	519	508	527	31	38	
12	1	1	0	0	514	487	508	529	31	38	
13	1	1	0	0	522	441	504	531	32	38	
14	1	1	0	0	530	462	504	531	32	38	
15	1	1	0	0	525	488	502	534	32	38	
0	1	1	0	0	516	512	504	534	32	38	
1	1	1	0	0	508	528	504	536	32	37	
2	1	1	0	0	504	535	507	536	32	37	
3	1	1	0	0	502	534	513	537	32	37	
4	1	1	0	0	502	535	513	538	32	37	
5	1	1	0	0	505	531	519	538	32	37	
6	1	1	0	0	506	527	516	539	32	37	
7	1	1	0	0	509	527	519	539	32	37	
8	1	1	0	0	511	527	513	539	32	36	
9	1	1	0	0	509	555	512	540	32	36	
10	1	1	0	0	499	569	517	541	31	36	
11	1	1	0	0	498	569	516	541	31	36	
12	1	1	0	0	502	552	516	542	31	36	
13	1	1	0	0	511	544	515	542	31	35	
14	1	1	0	0	505	490	514	542	30	35	
15	1	1	0	0	510	424	507	544	30	35	
0	1	1	0	0	512	408	502	543	29	34	
1	1	1	0	0	525	467	505	544	29	34	
2	1	1	0	0	519	489	508	544	28	34	
3	1	1	0	0	515	487	510	543	28	33	
4	1	1	0	0	516	483	508	544	28	33	
5	1	1	0	0	510	489	509	545	27	33	
6	1	1	0	0	503	520	510	547	27	32	
7	1	1	0	0	498	530	511	549	26	32	
8	1	1	0	0	500	531	509	551	26	31	
9	1	1	0	0	501	538	509	553	25	31	
10	1	1	0	0	503	536	509	556	25	31	
11	1	1	0	0	502	527	507	559	25	31	
12	1	1	0	0	505	530	509	564	25	30	
13	1	1	0	0	510	531	506	568	25	30	
14	1	1	0	0	513	519	504	573	25	30	
15	1	1	0	0	513	507	503	578	25	30	
0	1	1	0	0	511	505	500	583	25	29	
1	1	1	0	0	510	508	501	587	26	29	
2	1	1	0	0	513	502	502	592	26	29	
3	1	1	0	0	520	505	504	596	26	29	
4	1	1	0	0	521	510	504	600	27	29	
5	1	1	0	0	519	517	506	605	27	29	
6	1	1	0	0	517	523	508	609	28	29	
7	1	1	0	0	515	519	509	613	28	29	
8	1	1	0	0	512	519	509	615	28	29	
9	1	1	0	0	510	519	510	616	28	29	
10	1	1	0	0	510	519	513	617	28	30	
11	1	1	0	0	509	519	516	616	28	30	
12	1	1	0	0	509	520	518	617	28	31	
13	1	1	0	0	510	521	518	615	28	31	
14	1	1	0	0	507	521	518	614	29	32	
15	1	1	0	0	510	519	520	613	28	32	
0	1	1	0	0	509	518	522	610	28	33	
1	1	1	0	0	509	517	516	608	28	34	
2	1	1	0	0	509	517	511	606	28	35	
3	1	1	0	0	509	514	509	603	28	35	
4	1	1	0	0	509	516	508	601	28	36	
5	1	1	0	0	510	515	505	598	28	37	
6	1	1	0	0	512	514	504	595	29	38	
7	1	1	0	0	510	517	503	593	28	39	
8	1	1	0	0	510	518	503	591	28	40	
9	1	1	0	0	512	519	503	589	28	41	
10	1	1	0	0	510	518	510	587	28	41	
11	1	1	0	0	512	517	519	585	28	42	
12	1	1	0	0	512	514	526	585	28	43	
13	1	1	0	0	512	510	529	585	28	44	
14	1	1	0	0	515	499	536	585	28	45	
15	1	1	0	0	512	493	538	584	28	45	
0	1	1	0	0	514	503	538	584	28	46	
1	1	1	0	0	512	514	539	583	28	47	
2	1	1	0	0	507	517	536	583	28	48	
3	1	1	0	0	507	512	529	582	28	48	
4	1	1	0	0	508	507	527	581	29	49	
5	1	1	0	0	511	505	520	579	29	49	
6	1	1	0	0	511	509	518	577	29	49	
7	1	1	0	0	512	514	515	576	29	50	
8	1	1	0	0	511	521	512	574	30	50	
9	1	1	0	0	511	522	508	572	30	50	
10	1	1	0	0	511	515	505	569	30	50	
11	1	1	0	0	512	504	499	566	31	49	
12	1	1	0	0	512	491	499	564	32	49	
13	1	1	0	0	511	480	495	562	32	49	
