# OpenSignals Text File Format
# {"20:15:12:22:97:41": {"sensor": ["RAW", "RAW", "RAW", "RAW", "RAW", "RAW"], "device name": "20:15:12:22:97:41", "column": ["nSeq", "I1", "I2", "O1", "O2", "EMG1", "EMG2", "EMG3", "ACC1", "ACC2", "ACC3"], "sync interval": 2, "time": "21:42:48.57", "comments": "", "device connection": "BTH20:15:12:22:97:41", "channels": [1, 2, 3, 4, 5, 6], "date": "2017-4-26", "mode": 0, "digital IO": [0, 0, 1, 1], "firmware version": 1281, "device": "bitalino_rev", "position": 0, "sampling rate": 1000, "label": ["EMG1", "EMG2", "EMG3", "ACC1", "ACC2", "ACC3"], "resolution": [4, 1, 1, 1, 1, 10, 10, 10, 10, 6, 6], "special": [{}, {}, {}, {}, {}, {}]}}
# EndOfHeader
0	1	1	0	0	510	511	508	583	29	35	
1	1	1	0	0	510	512	513	583	29	35	
2	1	1	0	0	510	515	511	583	29	35	
3	1	1	0	0	510	515	508	583	29	35	
4	1	1	0	0	510	511	507	584	29	35	
5	1	1	0	0	510	515	514	584	29	35	
6	1	1	0	0	508	515	521	585	29	35	
7	1	1	0	0	510	512	515	585	29	35	
8	1	1	0	0	509	511	507	584	29	35	
9	1	1	0	0	512	514	498	585	29	35	
10	1	1	0	0	513	512	494	584	29	35	
11	1	1	0	0	512	512	498	584	29	35	
12	1	1	0	0	510	512	496	583	29	35	
13	1	1	0	0	509	511	504	583	29	35	
14	1	1	0	0	508	514	515	584	29	35	
15	1	1	0	0	510	516	514	584	29	35	
0	1	1	0	0	510	512	508	584	29	35	
1	1	1	0	0	511	510	503	585	29	35	
2	1	1	0	0	508	514	511	585	29	35	
3	1	1	0	0	508	512	515	585	29	35	
4	1	1	0	0	510	514	515	585	29	35	
5	1	1	0	0	508	513	515	584	29	35	
6	1	1	0	0	508	512	511	584	29	35	
7	1	1	0	0	508	513	510	584	29	35	
8	1	1	0	0	511	509	500	583	29	35	
9	1	1	0	0	511	513	509	583	29	35	
10	1	1	0	0	511	513	519	583	29	35	
11	1	1	0	0	511	516	527	583	29	35	
12	1	1	0	0	509	513	517	584	29	35	
13	1	1	0	0	509	512	514	584	29	35	
14	1	1	0	0	510	511	515	585	29	35	
15	1	1	0	0	509	515	501	584	29	35	
0	1	1	0	0	512	511	495	583	29	35	
1	1	1	0	0	513	513	495	583	29	35	
2	1	1	0	0	510	511	507	583	29	35	
3	1	1	0	0	508	514	516	583	29	35	
4	1	1	0	0	511	515	515	583	29	35	
5	1	1	0	0	510	513	515	583	29	35	
6	1	1	0	0	510	517	507	584	29	35	
7	1	1	0	0	511	514	500	584	29	35	
8	1	1	0	0	509	512	491	583	29	35	
9	1	1	0	0	511	512	503	583	29	35	
10	1	1	0	0	510	515	510	583	29	35	
11	1	1	0	0	509	513	519	584	29	35	
12	1	1	0	0	509	512	522	584	29	35	
13	1	1	0	0	512	515	520	583	29	35	
14	1	1	0	0	509	512	509	583	29	35	
15	1	1	0	0	510	512	496	583	29	35	
0	1	1	0	0	510	512	500	583	29	35	
1	1	1	0	0	511	513	502	583	29	35	
2	1	1	0	0	512	516	508	583	29	35	
3	1	1	0	0	512	513	508	583	29	35	
4	1	1	0	0	510	512	502	583	29	35	
5	1	1	0	0	509	512	510	584	29	35	
6	1	1	0	0	508	513	513	585	29	35	
7	1	1	0	0	511	515	518	584	29	35	
8	1	1	0	0	508	512	517	584	29	35	
9	1	1	0	0	507	512	521	584	29	35	
10	1	1	0	0	509	512	519	583	29	35	
11	1	1	0	0	511	510	515	584	29	35	
12	1	1	0	0	511	510	505	584	29	35	
13	1	1	0	0	514	513	501	583	29	35	
14	1	1	0	0	510	511	488	584	29	35	
15	1	1	0	0	511	511	482	585	29	35	
0	1	1	0	0	509	514	503	584	29	35	
1	1	1	0	0	508	513	513	585	29	35	
2	1	1	0	0	508	514	515	584	29	35	
3	1	1	0	0	511	515	513	585	29	35	
4	1	1	0	0	510	511	519	584	29	35	
5	1	1	0	0	509	512	529	584	29	35	
6	1	1	0	0	509	511	527	583	29	35	
7	1	1	0	0	511	513	521	584	29	35	
8	1	1	0	0	511	512	507	585	29	35	
9	1	1	0	0	510	516	498	584	29	35	
10	1	1	0	0	512	512	498	584	29	35	
11	1	1	0	0	512	515	504	584	29	35	
12	1	1	0	0	509	514	502	584	29	35	
13	1	1	0	0	511	510	497	585	29	35	
14	1	1	0	0	510	512	505	584	29	35	
15	1	1	0	0	509	512	510	583	29	35	
0	1	1	0	0	511	513	510	583	29	35	
1	1	1	0	0	511	513	511	583	29	35	
2	1	1	0	0	509	514	511	583	29	35	
3	1	1	0	0	510	514	515	583	29	35	
4	1	1	0	0	510	513	510	584	29	35	
5	1	1	0	0	509	514	512	583	29	35	
6	1	1	0	0	510	513	521	583	29	35	
7	1	1	0	0	511	514	521	583	29	35	
8	1	1	0	0	511	512	511	583	29	35	
9	1	1	0	0	509	511	510	583	29	35	
10	1	1	0	0	511	510	518	583	29	35	
11	1	1	0	0	511	512	515	583	29	35	
12	1	1	0	0	508	513	505	583	29	35	
13	1	1	0	0	512	512	510	583	29	35	
14	1	1	0	0	510	511	496	583	29	35	
15	1	1	0	0	510	515	497	583	29	35	
0	1	1	0	0	511	515	499	584	29	35	
1	1	1	0	0	509	513	504	583	29	35	
2	1	1	0	0	511	515	511	583	29	35	
3	1	1	0	0	512	514	515	584	29	35	
4	1	1	0	0	507	510	514	584	29	35	
5	1	1	0	0	509	515	511	584	29	35	
6	1	1	0	0	509	513	500	583	29	35	
7	1	1	0	0	512	511	511	583	29	35	
8	1	1	0	0	509	512	514	583	29	35	
9	1	1	0	0	510	515	507	583	29	35	
10	1	1	0	0	508	511	505	583	29	35	
11	1	1	0	0	509	512	507	583	29	35	
12	1	1	0	0	510	511	509	583	29	35	
13	1	1	0	0	511	513	505	583	29	35	
14	1	1	0	0	514	515	510	584	29	35	
15	1	1	0	0	510	511	513	583	29	35	
0	1	1	0	0	506	513	512	583	29	35	
1	1	1	0	0	509	510	510	583	29	35	
2	1	1	0	0	511	510	501	583	29	35	
3	1	1	0	0	512	513	506	583	29	35	
4	1	1	0	0	511	512	507	583	29	35	
5	1	1	0	0	511	515	512	583	29	35	
6	1	1	0	0	508	514	512	584	29	35	
7	1	1	0	0	510	515	510	584	29	35	
8	1	1	0	0	510	513	508	583	29	35	
9	1	1	0	0	509	513	509	583	29	35	
10	1	1	0	0	509	511	515	584	29	35	
11	1	1	0	0	510	512	527	583	29	35	
12	1	1	0	0	511	510	521	583	29	35	
13	1	1	0	0	510	513	516	583	29	35	
14	1	1	0	0	510	512	510	583	29	35	
15	1	1	0	0	510	516	496	583	29	35	
0	1	1	0	0	513	514	489	583	29	35	
1	1	1	0	0	511	508	487	584	29	35	
2	1	1	0	0	509	511	514	584	29	35	
3	1	1	0	0	508	516	523	584	29	35	
4	1	1	0	0	510	516	522	584	29	35	
5	1	1	0	0	510	513	514	584	29	35	
6	1	1	0	0	509	515	507	584	29	35	
7	1	1	0	0	510	515	510	584	29	35	
8	1	1	0	0	511	512	509	583	29	35	
9	1	1	0	0	510	512	512	583	29	35	
10	1	1	0	0	509	512	511	583	29	35	
11	1	1	0	0	509	512	510	584	29	35	
12	1	1	0	0	509	514	505	583	29	35	
13	1	1	0	0	511	514	494	584	29	35	
14	1	1	0	0	510	511	489	584	29	35	
15	1	1	0	0	510	513	499	584	29	35	
0	1	1	0	0	508	515	508	583	29	35	
1	1	1	0	0	508	513	513	584	29	35	
2	1	1	0	0	511	512	515	583	29	35	
3	1	1	0	0	512	512	520	583	29	35	
4	1	1	0	0	510	514	517	583	29	35	
5	1	1	0	0	511	513	505	583	29	35	
6	1	1	0	0	511	510	506	583	29	35	
7	1	1	0	0	510	508	511	583	29	35	
8	1	1	0	0	509	512	516	583	29	35	
9	1	1	0	0	510	513	510	584	29	35	
10	1	1	0	0	509	512	512	583	29	35	
11	1	1	0	0	510	514	517	583	29	35	
12	1	1	0	0	510	513	514	584	29	35	
13	1	1	0	0	510	513	506	583	29	35	
14	1	1	0	0	512	512	508	583	29	35	
15	1	1	0	0	510	512	507	584	29	35	
0	1	1	0	0	509	516	500	583	29	35	
1	1	1	0	0	509	513	500	583	29	35	
2	1	1	0	0	510	512	509	584	29	35	
3	1	1	0	0	508	515	516	583	29	35	
4	1	1	0	0	512	513	516	584	29	35	
5	1	1	0	0	512	513	513	583	29	35	
6	1	1	0	0	510	510	512	584	29	35	
7	1	1	0	0	512	511	501	583	29	35	
8	1	1	0	0	511	513	506	584	29	35	
9	1	1	0	0	512	517	507	584	29	35	
10	1	1	0	0	511	513	508	583	29	35	
11	1	1	0	0	511	513	503	583	29	35	
12	1	1	0	0	509	512	510	583	29	35	
13	1	1	0	0	506	512	514	584	29	35	
14	1	1	0	0	511	513	516	585	29	35	
15	1	1	0	0	510	514	520	583	29	35	
0	1	1	0	0	510	513	519	583	29	35	
1	1	1	0	0	509	511	516	583	29	35	
2	1	1	0	0	510	511	507	584	29	35	
3	1	1	0	0	512	513	505	585	29	35	
4	1	1	0	0	511	513	503	584	29	35	
5	1	1	0	0	511	511	496	583	29	35	
6	1	1	0	0	509	513	502	583	29	35	
7	1	1	0	0	508	511	501	583	29	35	
8	1	1	0	0	508	512	511	583	29	35	
9	1	1	0	0	508	511	515	583	29	35	
10	1	1	0	0	510	513	517	583	29	35	
11	1	1	0	0	511	516	512	583	29	35	
12	1	1	0	0	509	511	509	584	29	35	
13	1	1	0	0	511	513	507	584	29	35	
14	1	1	0	0	509	514	510	583	29	35	
15	1	1	0	0	510	515	517	583	29	35	
0	1	1	0	0	511	514	511	583	29	35	
1	1	1	0	0	509	513	506	583	29	35	
2	1	1	0	0	510	511	512	583	29	35	
3	1	1	0	0	511	514	514	583	29	35	
4	1	1	0	0	510	515	511	584	29	35	
5	1	1	0	0	511	511	500	583	29	35	
6	1	1	0	0	511	516	504	583	29	35	
7	1	1	0	0	511	511	503	584	29	35	
8	1	1	0	0	511	510	497	584	29	35	
9	1	1	0	0	509	513	504	583	29	35	
10	1	1	0	0	510	511	503	583	29	35	
11	1	1	0	0	508	512	516	583	29	35	
12	1	1	0	0	507	512	522	583	29	35	
13	1	1	0	0	508	511	524	583	29	35	
14	1	1	0	0	511	513	526	583	29	35	
15	1	1	0	0	511	511	518	583	29	35	
0	1	1	0	0	510	512	507	583	29	35	
1	1	1	0	0	514	515	504	583	29	35	
2	1	1	0	0	513	514	494	583	29	35	
3	1	1	0	0	511	512	497	583	29	35	
4	1	1	0	0	510	512	503	584	29	35	
5	1	1	0	0	506	512	518	583	29	35	
6	1	1	0	0	511	515	521	583	29	35	
7	1	1	0	0	507	515	518	583	29	35	
8	1	1	0	0	508	515	519	583	29	35	
9	1	1	0	0	510	513	502	582	29	35	
10	1	1	0	0	512	512	494	582	29	35	
11	1	1	0	0	509	512	496	583	29	35	
12	1	1	0	0	511	512	500	583	29	35	
13	1	1	0	0	510	511	497	583	29	35	
14	1	1	0	0	511	512	497	583	29	35	
15	1	1	0	0	510	512	504	583	29	35	
0	1	1	0	0	507	513	509	584	29	35	
1	1	1	0	0	508	514	515	584	29	35	
2	1	1	0	0	512	510	511	583	29	35	
3	1	1	0	0	511	513	512	583	29	35	
4	1	1	0	0	510	513	517	583	29	35	
5	1	1	0	0	511	514	516	583	29	35	
6	1	1	0	0	510	515	520	583	29	35	
7	1	1	0	0	508	513	518	583	29	35	
8	1	1	0	0	513	513	512	583	29	35	
9	1	1	0	0	510	515	510	583	29	35	
10	1	1	0	0	508	511	506	583	29	35	
11	1	1	0	0	511	514	510	583	29	35	
12	1	1	0	0	511	510	505	583	29	35	
13	1	1	0	0	511	513	512	583	29	35	
14	1	1	0	0	509	511	513	583	29	35	
15	1	1	0	0	509	512	508	583	29	35	
0	1	1	0	0	510	515	504	583	29	35	
1	1	1	0	0	511	511	504	583	29	35	
2	1	1	0	0	511	516	508	583	29	35	
3	1	1	0	0	511	514	512	583	29	35	
4	1	1	0	0	511	512	511	583	29	35	
5	1	1	0	0	509	513	512	584	29	35	
6	1	1	0	0	509	513	511	584	29	35	
7	1	1	0	0	511	512	500	585	29	35	
8	1	1	0	0	511	510	504	584	29	35	
9	1	1	0	0	510	513	507	583	29	35	
10	1	1	0	0	513	514	508	583	29	35	
11	1	1	0	0	509	512	509	583	29	35	
12	1	1	0	0	510	510	506	583	29	35	
13	1	1	0	0	511	512	511	583	29	35	
14	1	1	0	0	511	511	514	584	29	35	
15	1	1	0	0	508	512	512	583	29	35	
0	1	1	0	0	511	512	510	584	29	35	
1	1	1	0	0	510	514	508	584	29	35	
2	1	1	0	0	508	513	511	583	29	35	
3	1	1	0	0	511	516	512	583	29	35	
4	1	1	0	0	510	513	507	584	29	35	
5	1	1	0	0	508	515	510	584	29	35	
6	1	1	0	0	509	513	515	583	29	35	
7	1	1	0	0	509	513	516	583	29	35	
8	1	1	0	0	510	512	515	584	29	35	
9	1	1	0	0	508	515	513	583	29	35	
10	1	1	0	0	511	512	512	583	29	35	
11	1	1	0	0	511	510	510	583	29	35	
12	1	1	0	0	512	510	504	584	29	35	
13	1	1	0	0	512	513	506	584	29	35	
14	1	1	0	0	512	516	510	583	29	35	
15	1	1	0	0	511	514	506	583	29	35	
0	1	1	0	0	511	511	500	583	29	35	
1	1	1	0	0	509	511	495	583	29	35	
2	1	1	0	0	510	515	498	583	29	35	
3	1	1	0	0	509	517	507	583	29	35	
4	1	1	0	0	507	514	508	584	29	35	
5	1	1	0	0	507	513	512	583	29	35	
6	1	1	0	0	507	512	513	584	29	35	
7	1	1	0	0	511	512	509	584	29	35	
8	1	1	0	0	511	511	509	584	29	35	
9	1	1	0	0	509	513	506	584	29	35	
10	1	1	0	0	512	513	506	583	29	35	
11	1	1	0	0	512	514	512	583	29	35	
12	1	1	0	0	510	514	519	583	29	35	
13	1	1	0	0	510	518	522	583	29	35	
14	1	1	0	0	508	514	518	583	29	35	
15	1	1	0	0	510	511	518	584	29	35	
0	1	1	0	0	509	510	515	583	29	35	
1	1	1	0	0	512	511	521	583	29	35	
2	1	1	0	0	512	513	520	583	29	35	
3	1	1	0	0	510	511	515	584	29	35	
4	1	1	0	0	511	512	525	584	29	35	
5	1	1	0	0	508	514	522	583	29	35	
6	1	1	0	0	510	512	506	584	29	35	
7	1	1	0	0	512	511	497	583	29	35	
8	1	1	0	0	512	515	492	583	29	35	
9	1	1	0	0	510	514	480	583	29	35	
10	1	1	0	0	510	510	483	583	29	35	
11	1	1	0	0	508	512	487	583	29	35	
12	1	1	0	0	509	514	491	584	29	35	
13	1	1	0	0	510	512	496	583	29	35	
14	1	1	0	0	510	512	498	584	29	35	
15	1	1	0	0	509	513	510	584	29	35	
0	1	1	0	0	507	516	515	584	29	35	
1	1	1	0	0	509	513	516	584	29	35	
2	1	1	0	0	509	511	517	583	29	35	
3	1	1	0	0	511	511	515	583	29	35	
4	1	1	0	0	511	513	521	583	29	35	
5	1	1	0	0	511	514	524	583	29	35	
6	1	1	0	0	511	513	524	583	29	35	
7	1	1	0	0	512	513	519	583	29	35	
8	1	1	0	0	512	513	511	584	29	35	
9	1	1	0	0	514	513	500	584	29	35	
10	1	1	0	0	511	512	506	584	29	35	
11	1	1	0	0	510	513	502	584	29	35	
12	1	1	0	0	511	512	505	584	29	35	
13	1	1	0	0	508	514	511	584	29	35	
14	1	1	0	0	508	512	512	584	29	35	
15	1	1	0	0	507	517	513	583	29	35	
0	1	1	0	0	510	514	513	583	29	35	
1	1	1	0	0	509	513	511	584	29	35	
2	1	1	0	0	510	514	510	584	29	35	
3	1	1	0	0	510	512	511	584	29	35	
4	1	1	0	0	509	512	509	585	29	35	
5	1	1	0	0	511	514	511	584	29	35	
6	1	1	0	0	509	514	508	584	29	35	
7	1	1	0	0	509	513	511	584	29	35	
8	1	1	0	0	511	512	516	584	29	35	
9	1	1	0	0	511	511	515	583	29	35	
10	1	1	0	0	512	512	511	583	29	35	
11	1	1	0	0	512	512	510	584	29	35	
12	1	1	0	0	510	512	504	584	29	35	
13	1	1	0	0	508	512	504	584	29	35	
14	1	1	0	0	509	512	497	584	29	35	
15	1	1	0	0	510	512	504	584	29	35	
0	1	1	0	0	508	514	505	584	29	35	
1	1	1	0	0	511	512	507	584	29	35	
2	1	1	0	0	511	513	508	583	29	35	
3	1	1	0	0	509	514	514	583	29	35	
4	1	1	0	0	509	514	522	583	29	35	
5	1	1	0	0	508	510	514	583	29	35	
6	1	1	0	0	510	512	511	583	29	35	
7	1	1	0	0	510	514	506	583	29	35	
8	1	1	0	0	512	512	503	583	29	35	
9	1	1	0	0	512	516	508	583	29	35	
10	1	1	0	0	510	515	513	583	29	35	
11	1	1	0	0	509	513	518	584	29	35	
12	1	1	0	0	508	508	504	584	29	35	
13	1	1	0	0	513	510	510	583	29	35	
14	1	1	0	0	508	513	514	583	29	35	
15	1	1	0	0	511	515	511	583	29	35	
0	1	1	0	0	510	514	505	583	29	35	
1	1	1	0	0	510	514	499	583	29	35	
2	1	1	0	0	510	511	497	583	29	35	
3	1	1	0	0	510	513	501	584	29	35	
4	1	1	0	0	510	512	508	583	29	35	
5	1	1	0	0	510	515	508	584	29	35	
6	1	1	0	0	511	514	514	584	29	35	
7	1	1	0	0	510	515	517	584	29	35	
8	1	1	0	0	512	514	516	583	29	35	
9	1	1	0	0	512	513	513	584	29	35	
10	1	1	0	0	510	511	505	584	29	35	
11	1	1	0	0	511	515	507	584	29	35	
12	1	1	0	0	512	513	514	584	29	35	
13	1	1	0	0	509	511	517	583	29	35	
14	1	1	0	0	509	513	515	583	29	35	
15	1	1	0	0	511	513	512	584	29	35	
0	1	1	0	0	508	511	505	584	29	35	
1	1	1	0	0	510	511	500	584	29	35	
2	1	1	0	0	511	511	499	584	29	35	
3	1	1	0	0	510	511	498	583	29	35	
4	1	1	0	0	510	513	508	583	29	35	
5	1	1	0	0	506	512	514	583	29	35	
6	1	1	0	0	510	514	516	583	29	35	
7	1	1	0	0	508	514	513	583	29	35	
8	1	1	0	0	509	515	503	583	29	35	
9	1	1	0	0	509	513	512	583	29	35	
10	1	1	0	0	511	512	512	583	29	35	
11	1	1	0	0	510	510	511	583	29	35	
12	1	1	0	0	511	515	513	583	29	35	
13	1	1	0	0	511	516	512	583	29	35	
14	1	1	0	0	510	514	510	583	29	35	
15	1	1	0	0	511	511	507	583	29	35	
0	1	1	0	0	511	514	516	583	29	35	
1	1	1	0	0	509	512	519	583	29	35	
2	1	1	0	0	511	511	531	583	29	35	
3	1	1	0	0	510	513	520	583	29	35	
4	1	1	0	0	512	510	495	583	29	35	
5	1	1	0	0	512	513	485	584	29	35	
6	1	1	0	0	512	513	476	584	29	35	
7	1	1	0	0	512	512	476	584	29	35	
8	1	1	0	0	510	513	494	585	29	35	
9	1	1	0	0	505	512	510	584	29	35	
10	1	1	0	0	509	513	517	584	29	35	
11	1	1	0	0	508	514	517	584	29	35	
12	1	1	0	0	507	515	521	584	29	35	
13	1	1	0	0	511	514	522	584	29	35	
14	1	1	0	0	510	515	522	584	29	35	
15	1	1	0	0	508	513	515	584	29	35	
0	1	1	0	0	509	512	520	584	29	35	
1	1	1	0	0	512	516	524	584	29	35	
2	1	1	0	0	508	511	507	584	29	35	
3	1	1	0	0	512	510	497	584	29	35	
4	1	1	0	0	514	512	496	585	29	35	
5	1	1	0	0	511	514	502	585	29	35	
6	1	1	0	0	509	516	510	584	29	35	
7	1	1	0	0	512	514	492	584	29	35	
8	1	1	0	0	511	509	497	584	29	35	
9	1	1	0	0	512	513	516	584	29	35	
10	1	1	0	0	509	513	512	584	29	35	
11	1	1	0	0	509	512	516	584	29	35	
12	1	1	0	0	508	511	508	585	29	35	
13	1	1	0	0	510	512	510	585	29	35	
14	1	1	0	0	508	512	512	585	29	35	
15	1	1	0	0	511	513	514	585	29	35	
0	1	1	0	0	511	514	519	585	29	35	
1	1	1	0	0	510	514	525	585	29	35	
2	1	1	0	0	507	514	526	584	29	35	
3	1	1	0	0	510	514	520	584	29	35	
4	1	1	0	0	512	514	509	584	29	35	
5	1	1	0	0	513	511	503	584	29	35	
6	1	1	0	0	513	512	498	584	29	35	
7	1	1	0	0	510	511	485	585	29	35	
8	1	1	0	0	511	514	496	585	29	35	
9	1	1	0	0	509	513	513	584	29	35	
10	1	1	0	0	507	513	515	585	29	35	
11	1	1	0	0	510	511	505	584	29	35	
12	1	1	0	0	511	511	507	584	29	35	
13	1	1	0	0	511	512	501	584	29	35	
14	1	1	0	0	511	514	512	583	29	35	
15	1	1	0	0	511	515	508	583	29	35	
0	1	1	0	0	508	513	514	583	29	35	
1	1	1	0	0	507	512	515	583	29	35	
2	1	1	0	0	511	511	512	583	29	35	
3	1	1	0	0	510	513	511	583	29	35	
4	1	1	0	0	510	514	508	583	29	35	
5	1	1	0	0	511	514	510	584	29	35	
6	1	1	0	0	509	512	504	584	29	35	
7	1	1	0	0	511	513	510	583	29	35	
8	1	1	0	0	509	513	513	583	29	35	
9	1	1	0	0	508	515	511	583	29	35	
10	1	1	0	0	508	512	514	583	29	35	
11	1	1	0	0	508	511	517	582	29	35	
12	1	1	0	0	511	513	519	583	29	35	
13	1	1	0	0	511	512	520	582	29	35	
14	1	1	0	0	512	513	520	583	29	35	
15	1	1	0	0	512	512	511	583	29	35	
0	1	1	0	0	512	508	501	583	29	35	
1	1	1	0	0	511	511	495	583	29	35	
2	1	1	0	0	512	513	495	582	29	35	
3	1	1	0	0	511	515	496	583	29	35	
4	1	1	0	0	511	515	505	583	29	35	
5	1	1	0	0	508	512	512	582	29	35	
6	1	1	0	0	507	514	517	583	29	35	
7	1	1	0	0	509	515	518	583	29	35	
8	1	1	0	0	511	513	515	583	29	35	
9	1	1	0	0	510	514	513	583	29	35	
10	1	1	0	0	509	514	506	583	29	35	
11	1	1	0	0	513	512	497	583	29	35	
12	1	1	0	0	513	512	500	583	29	35	
13	1	1	0	0	511	511	502	583	29	35	
14	1	1	0	0	509	514	504	583	29	35	
15	1	1	0	0	510	514	508	583	29	35	
0	1	1	0	0	510	512	504	583	29	35	
1	1	1	0	0	508	514	516	583	29	35	
2	1	1	0	0	508	515	519	583	29	35	
3	1	1	0	0	511	513	516	583	29	35	
4	1	1	0	0	509	513	508	583	29	35	
5	1	1	0	0	513	512	499	584	29	35	
6	1	1	0	0	511	512	496	584	29	35	
7	1	1	0	0	511	513	499	584	29	35	
8	1	1	0	0	510	514	506	584	29	35	
9	1	1	0	0	508	515	513	584	29	35	
10	1	1	0	0	511	514	525	583	29	35	
11	1	1	0	0	510	515	525	583	29	35	
12	1	1	0	0	511	511	516	584	29	35	
13	1	1	0	0	510	512	506	583	29	35	
14	1	1	0	0	509	511	502	583	29	35	
15	1	1	0	0	511	509	500	584	29	35	
0	1	1	0	0	511	511	507	583	29	35	
1	1	1	0	0	511	515	514	583	29	35	
2	1	1	0	0	510	513	512	584	29	35	
3	1	1	0	0	510	513	513	583	29	35	
4	1	1	0	0	509	514	514	583	29	35	
5	1	1	0	0	509	515	517	583	29	35	
6	1	1	0	0	509	513	515	582	29	35	
7	1	1	0	0	511	513	514	583	29	35	
8	1	1	0	0	511	513	509	583	29	35	
9	1	1	0	0	512	512	504	583	29	35	
10	1	1	0	0	512	512	507	583	29	35	
11	1	1	0	0	509	510	504	584	29	35	
12	1	1	0	0	510	512	504	584	29	35	
13	1	1	0	0	509	514	516	583	29	35	
14	1	1	0	0	507	515	520	584	29	35	
15	1	1	0	0	510	515	516	583	29	35	
0	1	1	0	0	508	514	510	583	29	35	
1	1	1	0	0	510	514	509	583	29	35	
2	1	1	0	0	512	515	501	582	29	35	
3	1	1	0	0	509	511	494	583	29	35	
4	1	1	0	0	511	515	503	583	29	35	
5	1	1	0	0	509	513	510	583	29	35	
6	1	1	0	0	509	512	514	584	29	35	
7	1	1	0	0	509	513	515	583	29	35	
8	1	1	0	0	510	513	505	584	29	35	
9	1	1	0	0	512	512	500	584	29	35	
10	1	1	0	0	512	512	507	583	29	35	
11	1	1	0	0	508	513	511	583	29	35	
12	1	1	0	0	507	512	512	583	29	35	
13	1	1	0	0	513	513	520	583	29	35	
14	1	1	0	0	511	516	520	583	29	35	
15	1	1	0	0	511	512	513	584	29	35	
0	1	1	0	0	512	512	503	583	29	35	
1	1	1	0	0	510	511	505	583	29	35	
2	1	1	0	0	511	512	508	584	29	35	
3	1	1	0	0	510	513	501	584	29	35	
4	1	1	0	0	509	512	505	584	29	35	
5	1	1	0	0	508	513	506	584	29	35	
6	1	1	0	0	510	513	503	583	29	35	
7	1	1	0	0	510	515	505	583	29	35	
8	1	1	0	0	510	512	506	583	29	35	
9	1	1	0	0	510	515	508	583	29	35	
10	1	1	0	0	507	512	502	583	29	35	
11	1	1	0	0	507	512	510	583	29	35	
12	1	1	0	0	507	512	524	583	29	35	
13	1	1	0	0	509	514	530	583	29	35	
14	1	1	0	0	508	512	527	584	29	35	
15	1	1	0	0	511	512	519	584	29	35	
0	1	1	0	0	512	514	520	584	29	35	
1	1	1	0	0	511	512	503	583	29	35	
2	1	1	0	0	512	512	495	583	29	35	
3	1	1	0	0	509	513	497	583	29	35	
4	1	1	0	0	510	512	493	583	29	35	
5	1	1	0	0	512	514	497	583	29	35	
6	1	1	0	0	511	512	501	583	29	35	
7	1	1	0	0	511	514	502	583	29	35	
8	1	1	0	0	510	513	509	584	29	35	
9	1	1	0	0	509	512	511	583	29	35	
10	1	1	0	0	507	513	509	583	29	35	
11	1	1	0	0	510	514	508	585	29	35	
12	1	1	0	0	508	512	515	584	29	35	
13	1	1	0	0	510	513	526	584	29	35	
14	1	1	0	0	511	516	523	585	29	35	
15	1	1	0	0	510	513	521	584	29	35	
0	1	1	0	0	511	513	519	583	29	35	
1	1	1	0	0	512	510	519	583	29	35	
2	1	1	0	0	509	510	510	583	29	35	
3	1	1	0	0	509	512	503	584	29	35	
4	1	1	0	0	511	511	506	584	29	35	
5	1	1	0	0	511	513	511	584	29	35	
6	1	1	0	0	511	511	499	584	29	35	
7	1	1	0	0	511	512	494	585	29	35	
8	1	1	0	0	511	512	499	585	29	35	
9	1	1	0	0	509	515	507	585	29	35	
10	1	1	0	0	507	514	513	585	29	35	
11	1	1	0	0	506	515	521	585	29	35	
12	1	1	0	0	510	512	515	584	29	35	
13	1	1	0	0	509	512	509	584	29	35	
14	1	1	0	0	510	513	499	585	29	35	
15	1	1	0	0	511	512	496	585	29	35	
0	1	1	0	0	511	510	502	585	29	35	
1	1	1	0	0	511	512	504	584	29	35	
2	1	1	0	0	509	514	516	584	29	35	
3	1	1	0	0	510	515	522	584	29	35	
4	1	1	0	0	509	514	516	585	29	35	
5	1	1	0	0	510	516	499	584	29	35	
6	1	1	0	0	512	512	503	583	29	35	
7	1	1	0	0	511	514	501	583	29	35	
8	1	1	0	0	511	512	499	583	29	35	
9	1	1	0	0	511	513	506	583	29	35	
10	1	1	0	0	512	515	510	583	29	35	
11	1	1	0	0	509	514	514	583	29	35	
12	1	1	0	0	507	512	512	583	29	35	
13	1	1	0	0	510	512	514	583	29	35	
14	1	1	0	0	512	513	519	584	29	35	
15	1	1	0	0	511	511	519	583	29	35	
0	1	1	0	0	511	513	516	583	29	35	
1	1	1	0	0	507	513	516	583	29	35	
2	1	1	0	0	510	514	518	583	29	35	
3	1	1	0	0	511	510	507	583	29	35	
4	1	1	0	0	511	511	503	583	29	35	
5	1	1	0	0	511	511	502	583	29	35	
6	1	1	0	0	508	514	501	583	29	35	
7	1	1	0	0	512	513	501	583	29	35	
8	1	1	0	0	508	514	505	583	29	35	
9	1	1	0	0	509	512	508	583	29	35	
10	1	1	0	0	511	514	513	583	29	35	
11	1	1	0	0	510	514	522	583	29	35	
12	1	1	0	0	510	512	521	583	29	35	
13	1	1	0	0	511	511	520	583	29	35	
14	1	1	0	0	510	512	512	583	29	35	
15	1	1	0	0	510	512	505	583	29	35	
0	1	1	0	0	511	513	492	583	29	35	
1	1	1	0	0	509	511	495	582	29	35	
2	1	1	0	0	508	515	500	582	29	35	
3	1	1	0	0	510	512	508	583	29	35	
4	1	1	0	0	506	513	510	583	29	35	
5	1	1	0	0	510	515	508	583	29	35	
6	1	1	0	0	510	511	509	584	29	35	
7	1	1	0	0	511	512	511	583	29	35	
8	1	1	0	0	508	514	512	584	29	35	
9	1	1	0	0	509	515	519	583	29	35	
10	1	1	0	0	510	513	519	583	29	35	
11	1	1	0	0	510	514	516	583	29	35	
12	1	1	0	0	512	512	511	584	29	35	
13	1	1	0	0	509	512	505	583	29	35	
14	1	1	0	0	509	511	500	583	29	35	
15	1	1	0	0	511	514	499	583	29	35	
0	1	1	0	0	511	509	501	583	29	35	
1	1	1	0	0	511	512	510	584	29	35	
2	1	1	0	0	508	513	518	584	29	35	
3	1	1	0	0	509	513	516	584	29	35	
4	1	1	0	0	508	513	513	584	29	35	
5	1	1	0	0	508	513	508	584	29	35	
6	1	1	0	0	511	515	511	585	29	35	
7	1	1	0	0	510	516	510	584	29	35	
8	1	1	0	0	510	513	504	583	29	35	
9	1	1	0	0	508	512	504	583	29	35	
10	1	1	0	0	509	512	508	583	29	35	
11	1	1	0	0	511	514	519	583	29	35	
12	1	1	0	0	510	516	514	583	29	35	
13	1	1	0	0	511	512	504	583	29	35	
14	1	1	0	0	510	515	507	584	29	35	
15	1	1	0	0	508	512	510	583	29	35	
0	1	1	0	0	511	512	492	583	29	35	
1	1	1	0	0	512	510	486	583	29	35	
2	1	1	0	0	511	512	502	583	29	35	
3	1	1	0	0	511	515	509	583	29	35	
4	1	1	0	0	509	513	511	583	29	35	
5	1	1	0	0	509	514	515	583	29	35	
6	1	1	0	0	510	512	518	582	29	35	
7	1	1	0	0	511	512	517	582	29	35	
8	1	1	0	0	509	514	520	583	29	35	
9	1	1	0	0	509	512	518	583	29	35	
10	1	1	0	0	511	511	509	582	29	35	
11	1	1	0	0	511	512	511	583	29	35	
12	1	1	0	0	510	514	508	583	29	35	
13	1	1	0	0	509	511	512	583	29	35	
14	1	1	0	0	509	510	506	583	29	35	
15	1	1	0	0	514	513	503	583	29	35	
0	1	1	0	0	511	511	505	583	29	35	
1	1	1	0	0	511	514	503	583	29	35	
2	1	1	0	0	509	516	507	583	29	35	
3	1	1	0	0	509	515	514	583	29	35	
4	1	1	0	0	509	514	520	584	29	35	
5	1	1	0	0	511	512	524	583	29	35	
6	1	1	0	0	511	513	512	584	29	35	
7	1	1	0	0	514	512	505	584	29	35	
8	1	1	0	0	513	515	501	584	29	35	
9	1	1	0	0	510	512	498	584	29	35	
10	1	1	0	0	511	512	496	583	29	35	
11	1	1	0	0	508	511	498	584	29	35	
12	1	1	0	0	508	512	517	584	29	35	
13	1	1	0	0	506	513	522	583	29	35	
14	1	1	0	0	508	518	514	584	29	35	
15	1	1	0	0	510	516	505	584	29	35	
0	1	1	0	0	510	513	498	584	29	35	
1	1	1	0	0	511	515	505	584	29	35	
2	1	1	0	0	509	513	511	584	29	35	
3	1	1	0	0	510	513	512	585	29	35	
4	1	1	0	0	510	512	512	584	29	35	
5	1	1	0	0	510	512	505	584	29	35	
6	1	1	0	0	512	512	503	584	29	35	
7	1	1	0	0	509	511	507	584	29	35	
8	1	1	0	0	508	511	515	584	29	35	
9	1	1	0	0	510	514	516	583	29	35	
10	1	1	0	0	511	511	515	583	29	35	
11	1	1	0	0	511	512	516	584	29	35	
12	1	1	0	0	512	511	519	584	29	35	
13	1	1	0	0	511	512	514	584	29	35	
14	1	1	0	0	512	510	505	584	29	35	
15	1	1	0	0	510	511	511	584	29	35	
0	1	1	0	0	510	515	509	585	29	35	
1	1	1	0	0	509	511	501	584	29	35	
2	1	1	0	0	511	512	508	583	29	35	
3	1	1	0	0	509	515	513	584	29	35	
4	1	1	0	0	509	514	511	583	29	35	
5	1	1	0	0	511	513	509	583	29	36	
6	1	1	0	0	508	512	508	583	29	36	
7	1	1	0	0	507	513	510	584	29	35	
8	1	1	0	0	511	515	507	584	29	35	
9	1	1	0	0	511	515	496	583	29	35	
10	1	1	0	0	511	511	498	584	29	35	
11	1	1	0	0	510	510	514	583	29	35	
12	1	1	0	0	508	514	514	585	29	35	
13	1	1	0	0	511	514	503	584	29	35	
14	1	1	0	0	512	513	498	584	29	35	
15	1	1	0	0	509	513	502	584	29	36	
0	1	1	0	0	511	513	509	583	29	35	
1	1	1	0	0	508	513	518	583	29	36	
2	1	1	0	0	509	512	527	583	29	36	
3	1	1	0	0	509	514	525	583	29	35	
4	1	1	0	0	509	514	519	583	29	35	
5	1	1	0	0	510	512	510	583	29	35	
6	1	1	0	0	511	513	496	583	29	35	
7	1	1	0	0	513	513	493	584	29	35	
8	1	1	0	0	508	513	503	584	29	35	
9	1	1	0	0	510	511	507	583	29	35	
10	1	1	0	0	509	512	494	583	29	36	
11	1	1	0	0	510	511	501	583	29	35	
12	1	1	0	0	511	517	514	583	29	35	
13	1	1	0	0	511	513	518	583	29	35	
14	1	1	0	0	510	515	520	583	29	35	
15	1	1	0	0	511	513	519	582	29	35	
0	1	1	0	0	506	513	512	583	29	35	
1	1	1	0	0	511	510	513	583	29	35	
2	1	1	0	0	510	512	514	583	29	35	
3	1	1	0	0	512	512	511	583	29	35	
4	1	1	0	0	512	510	512	583	29	35	
5	1	1	0	0	511	513	509	584	29	35	
6	1	1	0	0	510	514	504	583	29	35	
7	1	1	0	0	512	512	499	583	29	35	
8	1	1	0	0	515	513	491	583	29	36	
9	1	1	0	0	512	511	505	583	29	35	
10	1	1	0	0	511	514	519	583	29	35	
11	1	1	0	0	509	514	519	583	29	35	
12	1	1	0	0	506	512	508	583	29	35	
13	1	1	0	0	508	513	507	583	29	35	
14	1	1	0	0	505	513	505	583	29	35	
15	1	1	0	0	505	513	507	583	29	35	
0	1	1	0	0	505	513	508	583	29	35	
1	1	1	0	0	509	513	508	584	29	35	
2	1	1	0	0	510	514	518	583	29	35	
3	1	1	0	0	510	515	525	583	29	35	
4	1	1	0	0	511	514	520	584	29	35	
5	1	1	0	0	515	513	512	583	29	35	
6	1	1	0	0	515	512	505	583	29	35	
7	1	1	0	0	512	513	489	583	29	35	
8	1	1	0	0	514	511	495	583	29	35	
9	1	1	0	0	509	513	505	583	29	35	
10	1	1	0	0	505	513	511	583	29	35	
11	1	1	0	0	511	515	518	583	29	35	
12	1	1	0	0	508	513	517	584	29	35	
13	1	1	0	0	511	516	515	583	29	35	
14	1	1	0	0	512	513	508	584	29	35	
15	1	1	0	0	511	511	509	583	29	35	
0	1	1	0	0	509	511	502	583	29	35	
1	1	1	0	0	509	514	497	583	29	35	
2	1	1	0	0	506	513	504	583	29	35	
3	1	1	0	0	508	514	512	583	29	35	
4	1	1	0	0	508	515	516	583	29	35	
5	1	1	0	0	510	513	513	583	29	35	
6	1	1	0	0	512	513	515	583	29	35	
7	1	1	0	0	511	514	520	583	29	35	
8	1	1	0	0	511	513	524	584	29	35	
9	1	1	0	0	512	513	510	583	29	35	
10	1	1	0	0	508	509	499	583	29	35	
11	1	1	0	0	505	511	505	583	29	35	
12	1	1	0	0	504	512	503	582	29	35	
13	1	1	0	0	512	513	494	583	29	35	
14	1	1	0	0	521	512	495	583	29	35	
15	1	1	0	0	523	512	500	583	29	35	
0	1	1	0	0	509	513	509	583	29	35	
1	1	1	0	0	510	515	513	583	29	35	
2	1	1	0	0	506	513	516	583	29	35	
3	1	1	0	0	501	512	518	584	29	35	
4	1	1	0	0	504	513	518	584	29	35	
5	1	1	0	0	511	515	511	583	29	35	
6	1	1	0	0	524	512	507	583	29	35	
7	1	1	0	0	517	515	509	583	29	35	
8	1	1	0	0	508	514	501	583	29	35	
9	1	1	0	0	506	510	494	583	29	35	
10	1	1	0	0	506	510	505	583	29	35	
11	1	1	0	0	507	512	516	583	29	35	
12	1	1	0	0	506	513	526	584	29	35	
13	1	1	0	0	508	516	520	583	29	35	
14	1	1	0	0	511	515	525	584	29	35	
15	1	1	0	0	511	512	512	585	29	35	
0	1	1	0	0	513	511	508	584	29	35	
1	1	1	0	0	511	510	504	584	29	35	
2	1	1	0	0	509	513	498	584	29	35	
3	1	1	0	0	507	513	512	583	29	35	
4	1	1	0	0	509	512	522	584	29	35	
5	1	1	0	0	508	511	515	584	29	35	
6	1	1	0	0	510	514	508	585	29	35	
7	1	1	0	0	515	512	482	584	29	35	
8	1	1	0	0	517	511	477	585	29	35	
9	1	1	0	0	512	513	485	584	29	35	
10	1	1	0	0	508	514	498	584	29	35	
11	1	1	0	0	505	515	511	584	29	35	
12	1	1	0	0	504	515	520	583	29	35	
13	1	1	0	0	502	515	520	584	29	35	
14	1	1	0	0	509	515	518	584	29	35	
15	1	1	0	0	511	514	509	583	29	35	
0	1	1	0	0	512	511	511	584	29	35	
1	1	1	0	0	511	513	515	584	29	35	
2	1	1	0	0	509	512	519	583	29	35	
3	1	1	0	0	511	512	517	584	29	35	
4	1	1	0	0	510	513	515	584	29	35	
5	1	1	0	0	515	514	516	585	29	35	
6	1	1	0	0	510	514	515	584	29	35	
7	1	1	0	0	511	510	510	584	29	35	
8	1	1	0	0	511	512	495	584	29	35	
9	1	1	0	0	511	510	502	584	29	36	
10	1	1	0	0	511	513	504	583	29	36	
11	1	1	0	0	510	513	512	583	29	35	
12	1	1	0	0	507	512	507	583	29	35	
13	1	1	0	0	507	512	509	584	29	35	
14	1	1	0	0	507	511	513	584	29	35	
15	1	1	0	0	510	511	515	583	29	35	
0	1	1	0	0	508	516	513	583	29	35	
1	1	1	0	0	512	515	514	583	29	35	
2	1	1	0	0	510	514	509	583	29	35	
3	1	1	0	0	510	511	508	583	29	35	
4	1	1	0	0	510	513	504	583	29	35	
5	1	1	0	0	510	512	509	583	29	35	
6	1	1	0	0	511	513	516	583	29	35	
7	1	1	0	0	511	514	513	583	29	35	
8	1	1	0	0	510	513	514	583	29	35	
9	1	1	0	0	509	512	516	583	29	35	
10	1	1	0	0	510	513	516	583	29	35	
11	1	1	0	0	510	512	508	583	29	35	
12	1	1	0	0	509	512	507	583	29	35	
13	1	1	0	0	509	513	507	584	29	35	
14	1	1	0	0	510	512	499	584	29	35	
15	1	1	0	0	510	511	501	583	29	35	
0	1	1	0	0	510	513	505	583	29	35	
1	1	1	0	0	510	514	510	583	29	35	
2	1	1	0	0	509	513	511	583	29	35	
3	1	1	0	0	508	513	515	583	29	35	
4	1	1	0	0	512	514	516	583	29	35	
5	1	1	0	0	510	513	509	583	29	35	
6	1	1	0	0	512	512	498	583	29	35	
7	1	1	0	0	510	509	492	584	29	35	
8	1	1	0	0	508	511	499	584	29	35	
9	1	1	0	0	510	512	515	584	29	35	
10	1	1	0	0	509	513	515	583	29	35	
11	1	1	0	0	508	512	511	584	29	35	
12	1	1	0	0	509	512	512	583	29	35	
13	1	1	0	0	510	511	503	583	29	35	
14	1	1	0	0	513	514	501	583	29	35	
15	1	1	0	0	512	515	516	583	29	35	
0	1	1	0	0	512	512	521	583	29	35	
1	1	1	0	0	510	513	521	584	29	35	
2	1	1	0	0	509	513	514	584	29	35	
3	1	1	0	0	507	515	514	584	29	35	
4	1	1	0	0	510	513	516	584	29	35	
5	1	1	0	0	510	513	513	585	29	35	
6	1	1	0	0	509	510	508	584	29	35	
7	1	1	0	0	509	512	502	584	29	35	
8	1	1	0	0	510	512	494	584	29	35	
9	1	1	0	0	512	511	479	584	29	35	
10	1	1	0	0	512	512	487	584	29	35	
11	1	1	0	0	510	515	498	583	29	35	
12	1	1	0	0	509	515	509	583	29	35	
13	1	1	0	0	508	513	512	583	29	35	
14	1	1	0	0	511	512	513	584	29	35	
15	1	1	0	0	512	517	509	584	29	35	
0	1	1	0	0	512	513	508	583	29	35	
1	1	1	0	0	508	512	515	584	29	35	
2	1	1	0	0	509	510	516	584	29	35	
3	1	1	0	0	509	512	519	583	29	35	
4	1	1	0	0	511	513	510	584	29	35	
5	1	1	0	0	509	512	512	583	29	35	
6	1	1	0	0	511	513	516	583	29	35	
7	1	1	0	0	508	514	515	583	29	35	
8	1	1	0	0	511	514	505	583	29	35	
9	1	1	0	0	507	512	510	583	29	35	
10	1	1	0	0	508	511	511	583	29	35	
11	1	1	0	0	508	513	514	583	29	35	
12	1	1	0	0	509	512	512	583	29	35	
13	1	1	0	0	510	512	511	584	29	35	
14	1	1	0	0	511	515	512	583	29	35	
15	1	1	0	0	509	513	508	583	29	35	
0	1	1	0	0	513	513	509	583	29	35	
1	1	1	0	0	509	514	510	583	29	35	
2	1	1	0	0	509	513	512	582	29	35	
3	1	1	0	0	512	512	512	583	29	35	
4	1	1	0	0	508	511	507	583	29	35	
5	1	1	0	0	511	513	509	583	29	35	
6	1	1	0	0	513	514	509	583	29	35	
7	1	1	0	0	508	511	507	583	29	35	
8	1	1	0	0	511	514	505	583	29	35	
9	1	1	0	0	509	515	509	583	29	35	
10	1	1	0	0	510	515	514	583	29	35	
11	1	1	0	0	508	516	520	583	29	35	
12	1	1	0	0	509	512	515	583	29	35	
13	1	1	0	0	510	510	510	583	29	35	
14	1	1	0	0	509	513	512	583	29	35	
15	1	1	0	0	513	512	502	583	29	35	
0	1	1	0	0	510	512	501	583	29	35	
1	1	1	0	0	512	512	500	583	29	35	
2	1	1	0	0	509	512	503	583	29	35	
3	1	1	0	0	511	513	495	583	29	35	
4	1	1	0	0	513	512	493	584	29	35	
5	1	1	0	0	509	512	507	583	29	35	
6	1	1	0	0	508	515	519	583	29	35	
7	1	1	0	0	509	516	525	584	29	35	
8	1	1	0	0	508	513	524	583	29	35	
9	1	1	0	0	508	513	520	583	29	35	
10	1	1	0	0	511	512	516	583	29	35	
11	1	1	0	0	512	513	503	583	29	35	
12	1	1	0	0	513	515	487	584	29	35	
13	1	1	0	0	511	511	489	583	29	35	
14	1	1	0	0	508	515	508	585	29	35	
15	1	1	0	0	508	515	517	583	29	35	
0	1	1	0	0	507	512	517	584	29	35	
1	1	1	0	0	512	513	515	585	29	35	
2	1	1	0	0	510	514	517	584	29	35	
3	1	1	0	0	511	514	516	584	29	35	
4	1	1	0	0	510	513	524	584	29	35	
5	1	1	0	0	508	511	516	584	29	35	
6	1	1	0	0	507	511	512	584	29	35	
7	1	1	0	0	510	510	503	584	29	35	
8	1	1	0	0	512	515	493	584	29	35	
9	1	1	0	0	513	515	491	584	29	35	
10	1	1	0	0	511	511	486	584	29	35	
11	1	1	0	0	510	513	498	584	29	35	
12	1	1	0	0	507	510	509	584	29	35	
13	1	1	0	0	507	512	515	585	29	35	
14	1	1	0	0	511	514	512	584	29	35	
15	1	1	0	0	509	514	499	584	29	35	
0	1	1	0	0	506	508	505	584	29	35	
1	1	1	0	0	508	513	511	583	29	35	
2	1	1	0	0	511	512	519	583	29	35	
3	1	1	0	0	509	512	517	583	29	35	
4	1	1	0	0	510	514	521	583	29	35	
5	1	1	0	0	508	514	520	583	29	35	
6	1	1	0	0	508	511	516	584	29	35	
7	1	1	0	0	509	512	505	584	29	35	
8	1	1	0	0	510	511	495	584	29	35	
9	1	1	0	0	511	512	503	584	29	35	
10	1	1	0	0	512	514	505	584	29	35	
11	1	1	0	0	510	514	509	583	29	35	
12	1	1	0	0	510	516	511	583	29	35	
13	1	1	0	0	509	514	513	583	29	35	
14	1	1	0	0	509	512	514	583	29	35	
15	1	1	0	0	511	513	512	584	29	35	
0	1	1	0	0	512	512	513	584	29	35	
1	1	1	0	0	512	512	512	585	29	35	
2	1	1	0	0	512	512	510	584	29	35	
3	1	1	0	0	513	511	513	584	29	35	
4	1	1	0	0	511	515	519	585	29	35	
5	1	1	0	0	509	514	517	584	29	35	
6	1	1	0	0	510	512	513	584	29	35	
7	1	1	0	0	513	511	504	584	29	35	
8	1	1	0	0	511	512	506	584	29	35	
9	1	1	0	0	510	513	497	583	29	35	
10	1	1	0	0	511	511	504	583	29	35	
11	1	1	0	0	508	513	519	583	29	35	
12	1	1	0	0	507	516	518	583	29	35	
13	1	1	0	0	508	513	507	583	29	35	
14	1	1	0	0	513	512	501	583	29	35	
15	1	1	0	0	510	511	501	584	29	35	
0	1	1	0	0	510	512	496	584	29	35	
1	1	1	0	0	511	511	485	584	29	35	
2	1	1	0	0	509	512	499	584	29	35	
3	1	1	0	0	510	514	510	584	29	35	
4	1	1	0	0	512	515	511	583	29	35	
5	1	1	0	0	510	515	514	583	29	35	
6	1	1	0	0	510	515	511	583	29	35	
7	1	1	0	0	509	515	514	583	29	35	
8	1	1	0	0	509	512	515	583	29	35	
9	1	1	0	0	510	512	517	584	29	35	
10	1	1	0	0	510	511	516	583	29	35	
11	1	1	0	0	510	510	512	583	29	35	
12	1	1	0	0	511	512	511	584	29	35	
13	1	1	0	0	511	515	512	584	29	35	
14	1	1	0	0	511	515	513	584	29	35	
15	1	1	0	0	511	515	508	584	29	35	
0	1	1	0	0	510	511	508	584	29	35	
1	1	1	0	0	509	512	515	583	29	35	
2	1	1	0	0	508	514	518	583	29	35	
3	1	1	0	0	510	511	510	583	29	36	
4	1	1	0	0	512	512	509	584	29	35	
5	1	1	0	0	510	512	516	583	29	35	
6	1	1	0	0	509	512	521	583	29	35	
7	1	1	0	0	508	512	529	584	29	35	
8	1	1	0	0	507	515	531	584	29	35	
9	1	1	0	0	511	513	524	584	29	35	
10	1	1	0	0	510	511	506	583	29	35	
11	1	1	0	0	512	508	481	583	29	35	
12	1	1	0	0	513	510	476	583	29	35	
13	1	1	0	0	511	509	484	583	29	35	
14	1	1	0	0	510	516	494	583	29	36	
15	1	1	0	0	508	515	493	583	29	35	
0	1	1	0	0	508	513	501	584	29	35	
1	1	1	0	0	508	516	496	583	29	35	
2	1	1	0	0	509	512	501	583	29	35	
3	1	1	0	0	510	512	502	583	29	35	
4	1	1	0	0	509	511	518	584	29	35	
5	1	1	0	0	508	515	519	584	29	35	
6	1	1	0	0	508	513	508	584	29	35	
7	1	1	0	0	509	513	508	584	29	35	
8	1	1	0	0	511	514	518	584	29	35	
9	1	1	0	0	509	511	515	583	29	35	
10	1	1	0	0	512	511	514	583	29	35	
11	1	1	0	0	511	512	515	583	29	35	
12	1	1	0	0	511	512	512	583	29	35	
13	1	1	0	0	511	512	513	584	29	35	
14	1	1	0	0	510	514	512	583	29	35	
15	1	1	0	0	511	511	512	583	29	35	
0	1	1	0	0	511	513	511	583	29	35	
1	1	1	0	0	511	513	511	584	29	35	
2	1	1	0	0	510	514	512	583	29	35	
3	1	1	0	0	511	515	518	583	29	35	
4	1	1	0	0	507	513	522	583	29	35	
5	1	1	0	0	511	516	525	583	29	35	
6	1	1	0	0	510	514	525	582	29	35	
7	1	1	0	0	510	514	517	583	29	35	
8	1	1	0	0	510	512	505	583	29	35	
9	1	1	0	0	509	513	481	583	29	35	
10	1	1	0	0	513	511	486	583	29	35	
11	1	1	0	0	509	511	485	583	29	35	
12	1	1	0	0	510	514	498	583	29	35	
13	1	1	0	0	509	515	512	584	29	35	
14	1	1	0	0	507	514	522	584	29	35	
15	1	1	0	0	507	513	518	583	29	35	
0	1	1	0	0	511	513	516	583	29	35	
1	1	1	0	0	510	513	509	583	29	35	
2	1	1	0	0	510	514	508	583	29	35	
3	1	1	0	0	511	513	502	583	29	35	
4	1	1	0	0	511	512	501	583	29	35	
5	1	1	0	0	509	511	508	583	29	35	
6	1	1	0	0	508	510	510	583	29	35	
7	1	1	0	0	511	513	513	583	29	35	
8	1	1	0	0	511	516	515	583	29	35	
9	1	1	0	0	509	514	519	583	29	35	
10	1	1	0	0	510	510	511	584	29	35	
11	1	1	0	0	511	511	511	584	29	35	
12	1	1	0	0	508	512	515	583	29	35	
13	1	1	0	0	508	514	519	583	29	35	
14	1	1	0	0	509	512	514	583	29	35	
15	1	1	0	0	508	511	504	583	29	35	
0	1	1	0	0	510	513	506	584	29	35	
1	1	1	0	0	511	513	507	583	29	35	
2	1	1	0	0	510	511	508	584	29	35	
3	1	1	0	0	511	512	504	584	29	35	
4	1	1	0	0	511	513	517	584	29	35	
5	1	1	0	0	512	515	523	585	29	35	
6	1	1	0	0	510	514	508	583	29	35	
7	1	1	0	0	515	507	495	583	29	35	
8	1	1	0	0	512	509	498	583	29	35	
9	1	1	0	0	508	514	499	583	29	35	
10	1	1	0	0	510	512	488	583	29	35	
11	1	1	0	0	511	512	496	584	29	35	
12	1	1	0	0	508	512	511	583	29	35	
13	1	1	0	0	505	511	513	584	29	35	
14	1	1	0	0	507	516	510	584	29	35	
15	1	1	0	0	508	513	514	584	29	35	
0	1	1	0	0	512	515	516	584	29	35	
1	1	1	0	0	511	513	517	583	29	35	
2	1	1	0	0	511	513	514	583	29	35	
3	1	1	0	0	507	512	520	583	29	35	
4	1	1	0	0	508	513	529	583	29	35	
5	1	1	0	0	507	515	530	583	29	35	
6	1	1	0	0	510	514	513	584	29	35	
7	1	1	0	0	513	514	499	584	29	35	
8	1	1	0	0	515	510	498	584	29	35	
9	1	1	0	0	512	511	504	585	29	35	
10	1	1	0	0	512	512	506	583	29	35	
11	1	1	0	0	508	513	502	584	29	35	
12	1	1	0	0	511	513	494	584	29	35	
13	1	1	0	0	511	511	495	584	29	35	
14	1	1	0	0	509	512	499	584	29	35	
15	1	1	0	0	510	512	504	583	29	35	
0	1	1	0	0	509	513	506	584	29	35	
1	1	1	0	0	506	513	510	584	29	35	
2	1	1	0	0	506	514	511	584	29	35	
3	1	1	0	0	510	515	510	584	29	35	
4	1	1	0	0	509	512	505	584	29	35	
5	1	1	0	0	512	512	508	585	29	35	
6	1	1	0	0	511	512	511	585	29	35	
7	1	1	0	0	510	512	513	584	29	35	
8	1	1	0	0	507	513	512	584	29	35	
9	1	1	0	0	509	514	515	584	29	35	
10	1	1	0	0	511	514	513	583	29	35	
11	1	1	0	0	511	514	515	583	29	35	
12	1	1	0	0	512	514	513	584	29	35	
13	1	1	0	0	511	514	514	584	29	35	
14	1	1	0	0	511	514	514	584	29	35	
15	1	1	0	0	511	512	510	584	29	35	
0	1	1	0	0	511	512	511	584	29	35	
1	1	1	0	0	510	511	510	584	29	35	
2	1	1	0	0	511	515	508	585	29	35	
3	1	1	0	0	512	514	508	584	29	35	
4	1	1	0	0	511	512	506	583	29	35	
5	1	1	0	0	509	512	513	583	29	35	
6	1	1	0	0	508	515	517	583	29	36	
7	1	1	0	0	510	512	513	583	29	35	
8	1	1	0	0	511	513	516	583	29	35	
9	1	1	0	0	510	513	517	583	29	35	
10	1	1	0	0	509	513	502	583	29	35	
11	1	1	0	0	510	512	499	583	29	35	
12	1	1	0	0	509	514	509	584	29	35	
13	1	1	0	0	508	511	510	583	29	35	
14	1	1	0	0	511	512	505	584	29	35	
15	1	1	0	0	510	512	507	583	29	35	
0	1	1	0	0	511	512	508	583	29	35	
1	1	1	0	0	512	515	507	583	29	35	
2	1	1	0	0	513	510	489	583	29	35	
3	1	1	0	0	512	513	495	583	29	35	
4	1	1	0	0	509	515	502	583	29	35	
5	1	1	0	0	510	515	510	583	29	35	
6	1	1	0	0	508	512	507	584	29	35	
7	1	1	0	0	512	512	510	583	29	35	
8	1	1	0	0	508	512	513	584	29	35	
9	1	1	0	0	509	512	522	583	29	35	
10	1	1	0	0	509	512	522	583	29	35	
11	1	1	0	0	510	513	527	583	29	35	
12	1	1	0	0	512	514	526	583	29	35	
13	1	1	0	0	512	512	515	583	29	35	
14	1	1	0	0	512	512	505	583	29	35	
15	1	1	0	0	511	511	501	583	29	35	
0	1	1	0	0	507	513	499	583	29	35	
1	1	1	0	0	510	513	494	583	29	35	
2	1	1	0	0	510	512	497	583	29	35	
3	1	1	0	0	509	513	515	584	29	35	
4	1	1	0	0	509	515	512	584	29	35	
5	1	1	0	0	510	513	505	585	29	35	
6	1	1	0	0	511	513	505	584	29	35	
7	1	1	0	0	510	511	509	584	29	35	
8	1	1	0	0	511	515	521	583	29	35	
9	1	1	0	0	509	512	510	583	29	35	
10	1	1	0	0	510	512	513	584	29	35	
11	1	1	0	0	510	513	505	584	29	35	
12	1	1	0	0	508	510	490	584	29	35	
13	1	1	0	0	509	512	513	584	29	35	
14	1	1	0	0	505	514	511	584	29	35	
15	1	1	0	0	508	511	505	585	29	35	
0	1	1	0	0	511	513	504	585	29	35	
1	1	1	0	0	513	513	499	585	29	35	
2	1	1	0	0	511	514	497	584	29	35	
3	1	1	0	0	512	511	499	584	29	35	
4	1	1	0	0	510	512	511	584	29	35	
5	1	1	0	0	508	513	519	583	29	35	
6	1	1	0	0	509	514	519	583	29	35	
7	1	1	0	0	510	515	517	583	29	35	
8	1	1	0	0	510	514	516	584	29	35	
9	1	1	0	0	512	511	513	584	29	35	
10	1	1	0	0	512	514	513	583	29	35	
11	1	1	0	0	511	511	516	583	29	35	
12	1	1	0	0	508	513	518	584	29	35	
13	1	1	0	0	512	513	515	583	29	35	
14	1	1	0	0	511	511	511	584	29	35	
15	1	1	0	0	510	515	504	583	29	35	
0	1	1	0	0	512	514	505	583	29	35	
1	1	1	0	0	510	511	507	583	29	35	
2	1	1	0	0	512	513	507	583	29	35	
3	1	1	0	0	509	512	509	584	29	35	
4	1	1	0	0	509	513	508	583	29	35	
5	1	1	0	0	509	513	514	583	29	35	
6	1	1	0	0	510	513	512	584	29	35	
7	1	1	0	0	510	514	508	584	29	35	
8	1	1	0	0	510	514	505	584	29	35	
9	1	1	0	0	511	512	508	583	29	35	
10	1	1	0	0	511	512	509	583	29	35	
11	1	1	0	0	512	512	510	583	29	35	
12	1	1	0	0	508	513	511	583	29	35	
13	1	1	0	0	510	511	512	583	29	35	
14	1	1	0	0	511	515	521	583	29	35	
15	1	1	0	0	508	513	518	584	29	35	
0	1	1	0	0	513	513	510	584	29	35	
1	1	1	0	0	509	514	501	584	29	35	
2	1	1	0	0	512	513	506	584	29	35	
3	1	1	0	0	511	515	494	584	29	35	
4	1	1	0	0	510	512	488	584	29	35	
5	1	1	0	0	506	511	520	584	29	35	
6	1	1	0	0	504	512	537	584	29	35	
7	1	1	0	0	509	515	534	584	29	35	
8	1	1	0	0	510	515	522	583	29	35	
9	1	1	0	0	513	513	498	584	29	35	
10	1	1	0	0	511	515	479	583	29	35	
11	1	1	0	0	514	509	467	584	29	35	
12	1	1	0	0	511	508	475	583	29	35	
13	1	1	0	0	508	511	504	583	29	35	
14	1	1	0	0	509	515	526	584	29	35	
15	1	1	0	0	508	516	529	584	29	35	
0	1	1	0	0	510	515	520	584	29	35	
1	1	1	0	0	512	514	514	584	29	35	
2	1	1	0	0	513	515	498	583	29	35	
3	1	1	0	0	511	511	485	583	29	35	
4	1	1	0	0	511	511	501	583	29	36	
5	1	1	0	0	507	515	518	583	29	35	
6	1	1	0	0	507	514	509	584	29	35	
7	1	1	0	0	509	513	504	583	29	35	
8	1	1	0	0	508	512	509	583	29	35	
9	1	1	0	0	508	512	511	583	29	35	
10	1	1	0	0	509	512	510	583	29	35	
11	1	1	0	0	507	516	513	584	29	35	
12	1	1	0	0	510	515	521	583	29	35	
13	1	1	0	0	510	512	523	583	29	35	
14	1	1	0	0	513	513	519	583	29	35	
15	1	1	0	0	512	512	516	583	29	35	
0	1	1	0	0	512	511	509	583	29	35	
1	1	1	0	0	510	513	508	583	29	35	
2	1	1	0	0	512	511	508	583	29	35	
3	1	1	0	0	511	515	507	584	29	35	
4	1	1	0	0	509	511	516	583	29	35	
5	1	1	0	0	509	515	515	583	29	35	
6	1	1	0	0	511	512	510	584	29	35	
7	1	1	0	0	511	511	505	584	29	35	
8	1	1	0	0	509	511	502	583	29	35	
9	1	1	0	0	511	512	505	583	29	35	
10	1	1	0	0	511	513	507	583	29	35	
11	1	1	0	0	510	513	510	583	29	35	
12	1	1	0	0	509	511	509	583	29	35	
13	1	1	0	0	511	512	512	583	29	35	
14	1	1	0	0	510	515	513	583	29	35	
15	1	1	0	0	509	515	519	584	29	35	
0	1	1	0	0	508	514	511	583	29	35	
1	1	1	0	0	508	513	512	583	29	35	
2	1	1	0	0	506	513	506	583	29	35	
3	1	1	0	0	510	513	496	583	29	35	
4	1	1	0	0	509	512	494	583	29	35	
5	1	1	0	0	511	513	501	583	29	35	
6	1	1	0	0	511	512	505	583	29	35	
7	1	1	0	0	510	513	499	583	29	35	
8	1	1	0	0	510	510	507	583	29	35	
9	1	1	0	0	510	512	516	583	29	35	
10	1	1	0	0	511	515	518	583	29	35	
11	1	1	0	0	511	514	517	583	29	35	
12	1	1	0	0	507	511	517	584	29	35	
13	1	1	0	0	508	512	507	584	29	35	
14	1	1	0	0	512	510	503	584	29	35	
15	1	1	0	0	508	513	510	583	29	35	
0	1	1	0	0	508	511	511	583	29	35	
1	1	1	0	0	508	512	512	583	29	35	
2	1	1	0	0	510	515	514	583	29	35	
3	1	1	0	0	511	516	512	583	29	35	
4	1	1	0	0	511	514	508	583	29	35	
5	1	1	0	0	512	512	510	583	29	35	
6	1	1	0	0	511	512	506	583	29	35	
7	1	1	0	0	513	513	509	583	29	35	
8	1	1	0	0	511	512	504	584	29	35	
9	1	1	0	0	512	513	505	584	29	35	
10	1	1	0	0	510	516	519	583	29	35	
11	1	1	0	0	508	513	521	583	29	35	
12	1	1	0	0	509	512	518	583	29	35	
13	1	1	0	0	511	512	515	583	29	35	
14	1	1	0	0	513	515	510	584	29	35	
15	1	1	0	0	511	512	499	583	29	35	
0	1	1	0	0	511	509	487	585	29	35	
1	1	1	0	0	511	511	495	584	29	35	
2	1	1	0	0	510	514	507	585	29	35	
3	1	1	0	0	508	513	513	584	29	35	
4	1	1	0	0	508	513	518	584	29	35	
5	1	1	0	0	510	514	508	584	29	35	
6	1	1	0	0	509	514	500	583	29	35	
7	1	1	0	0	510	513	494	584	29	35	
8	1	1	0	0	511	514	494	583	29	35	
9	1	1	0	0	510	511	504	584	29	35	
10	1	1	0	0	507	515	517	584	29	35	
11	1	1	0	0	508	513	515	584	29	35	
12	1	1	0	0	508	512	510	584	29	35	
13	1	1	0	0	507	512	519	584	29	35	
14	1	1	0	0	509	514	521	584	29	35	
15	1	1	0	0	511	515	518	584	29	35	
0	1	1	0	0	511	512	516	583	29	35	
1	1	1	0	0	510	513	518	584	29	35	
2	1	1	0	0	511	513	527	583	29	35	
3	1	1	0	0	510	512	516	583	29	35	
4	1	1	0	0	511	511	507	584	29	35	
5	1	1	0	0	510	513	505	583	29	35	
6	1	1	0	0	512	513	490	584	29	35	
7	1	1	0	0	512	512	493	585	29	35	
8	1	1	0	0	510	512	498	584	29	35	
9	1	1	0	0	509	512	499	585	29	35	
10	1	1	0	0	510	514	504	584	29	35	
11	1	1	0	0	509	514	505	584	29	35	
12	1	1	0	0	511	514	512	584	29	35	
13	1	1	0	0	510	512	516	583	29	35	
14	1	1	0	0	508	514	516	584	29	35	
15	1	1	0	0	509	512	513	583	29	35	
0	1	1	0	0	508	510	514	583	29	35	
1	1	1	0	0	508	514	519	583	29	35	
2	1	1	0	0	509	514	515	583	29	35	
3	1	1	0	0	511	511	508	584	29	35	
4	1	1	0	0	512	513	500	583	29	35	
5	1	1	0	0	512	513	499	583	29	35	
6	1	1	0	0	510	512	499	583	29	35	
7	1	1	0	0	512	513	513	583	29	35	
8	1	1	0	0	510	514	515	583	29	35	
9	1	1	0	0	508	513	513	583	29	35	
10	1	1	0	0	510	511	513	583	29	35	
11	1	1	0	0	512	513	513	583	29	35	
12	1	1	0	0	511	514	513	583	29	35	
13	1	1	0	0	511	513	518	583	29	35	
14	1	1	0	0	510	515	516	583	29	35	
15	1	1	0	0	511	512	509	584	29	35	
0	1	1	0	0	509	510	505	584	29	35	
1	1	1	0	0	508	512	507	584	29	35	
2	1	1	0	0	508	513	505	583	29	35	
3	1	1	0	0	510	510	497	583	29	35	
4	1	1	0	0	509	509	500	583	29	35	
5	1	1	0	0	507	514	507	583	29	35	
6	1	1	0	0	511	515	502	584	29	35	
7	1	1	0	0	512	514	512	584	29	35	
8	1	1	0	0	510	513	514	585	29	35	
9	1	1	0	0	512	516	515	585	29	35	
10	1	1	0	0	511	514	511	584	29	35	
11	1	1	0	0	511	512	512	585	29	35	
12	1	1	0	0	508	512	514	584	29	35	
13	1	1	0	0	510	513	516	584	29	35	
14	1	1	0	0	510	512	519	584	29	35	
15	1	1	0	0	511	515	518	583	29	35	
0	1	1	0	0	509	511	509	584	29	35	
1	1	1	0	0	508	513	507	583	29	35	
2	1	1	0	0	510	515	505	583	29	35	
3	1	1	0	0	508	515	498	583	29	35	
4	1	1	0	0	511	511	490	584	29	35	
5	1	1	0	0	511	515	507	584	29	35	
6	1	1	0	0	505	513	519	584	29	35	
7	1	1	0	0	508	513	524	585	29	35	
8	1	1	0	0	508	512	514	585	29	35	
9	1	1	0	0	509	514	508	584	29	35	
10	1	1	0	0	513	513	511	584	29	35	
11	1	1	0	0	511	512	506	583	29	35	
12	1	1	0	0	511	515	504	584	29	35	
13	1	1	0	0	512	512	496	584	29	35	
14	1	1	0	0	509	512	509	584	29	35	
15	1	1	0	0	507	514	503	585	29	35	
0	1	1	0	0	508	513	494	584	29	35	
1	1	1	0	0	510	511	501	584	29	35	
2	1	1	0	0	508	512	517	585	29	35	
3	1	1	0	0	511	512	523	584	29	35	
4	1	1	0	0	510	512	521	584	29	35	
5	1	1	0	0	513	512	514	584	29	35	
6	1	1	0	0	512	512	508	584	29	35	
7	1	1	0	0	512	513	504	584	29	35	
8	1	1	0	0	511	512	505	584	29	35	
9	1	1	0	0	510	513	515	583	29	35	
10	1	1	0	0	509	515	520	584	29	35	
11	1	1	0	0	507	515	516	583	29	35	
12	1	1	0	0	511	514	505	584	29	35	
13	1	1	0	0	513	512	504	584	29	35	
14	1	1	0	0	511	512	500	583	29	35	
15	1	1	0	0	511	514	501	583	29	35	
0	1	1	0	0	512	514	511	584	29	35	
1	1	1	0	0	512	512	511	583	29	36	
2	1	1	0	0	510	511	512	583	29	35	
3	1	1	0	0	510	513	504	583	29	35	
4	1	1	0	0	510	512	507	583	29	36	
5	1	1	0	0	508	511	510	583	29	35	
6	1	1	0	0	508	511	507	584	29	35	
7	1	1	0	0	510	510	509	584	29	35	
8	1	1	0	0	508	513	504	584	29	35	
9	1	1	0	0	509	513	507	583	29	35	
10	1	1	0	0	508	516	505	584	29	35	
11	1	1	0	0	509	516	497	583	29	35	
12	1	1	0	0	511	514	508	583	29	36	
13	1	1	0	0	509	511	516	583	29	35	
14	1	1	0	0	510	515	518	584	29	35	
15	1	1	0	0	510	514	516	583	29	35	
0	1	1	0	0	512	513	516	584	29	35	
1	1	1	0	0	510	512	519	584	29	35	
2	1	1	0	0	513	513	520	583	29	35	
3	1	1	0	0	510	512	513	584	29	35	
4	1	1	0	0	512	512	511	584	29	35	
5	1	1	0	0	511	511	512	584	29	35	
6	1	1	0	0	509	510	503	584	29	35	
7	1	1	0	0	509	511	507	584	29	36	
8	1	1	0	0	511	512	502	583	29	35	
9	1	1	0	0	510	515	507	583	29	35	
10	1	1	0	0	511	515	510	584	29	35	
11	1	1	0	0	509	513	501	583	29	35	
12	1	1	0	0	508	512	504	584	29	35	
13	1	1	0	0	507	512	507	585	29	35	
14	1	1	0	0	511	515	506	585	29	35	
15	1	1	0	0	509	514	498	584	29	35	
0	1	1	0	0	510	512	504	584	29	35	
1	1	1	0	0	509	514	512	583	29	35	
2	1	1	0	0	508	512	511	583	29	35	
3	1	1	0	0	509	511	514	583	29	35	
4	1	1	0	0	511	513	518	584	29	35	
5	1	1	0	0	510	511	518	583	29	35	
6	1	1	0	0	511	513	513	584	29	35	
7	1	1	0	0	512	511	511	583	29	35	
8	1	1	0	0	509	514	508	584	29	35	
9	1	1	0	0	510	513	511	584	29	35	
10	1	1	0	0	510	514	511	583	29	35	
11	1	1	0	0	511	512	504	584	29	35	
12	1	1	0	0	510	513	510	583	29	35	
13	1	1	0	0	511	513	507	583	29	35	
14	1	1	0	0	514	513	511	583	29	35	
15	1	1	0	0	510	512	509	583	29	35	
0	1	1	0	0	511	512	511	583	29	35	
1	1	1	0	0	509	512	514	583	29	35	
2	1	1	0	0	510	515	508	583	29	35	
3	1	1	0	0	509	510	507	583	29	35	
4	1	1	0	0	510	513	508	583	29	35	
5	1	1	0	0	510	512	505	583	29	35	
6	1	1	0	0	507	515	504	583	29	35	
7	1	1	0	0	510	511	500	583	29	35	
8	1	1	0	0	509	514	508	583	29	35	
9	1	1	0	0	511	512	512	583	29	35	
10	1	1	0	0	510	512	516	582	29	35	
11	1	1	0	0	508	512	521	583	29	35	
12	1	1	0	0	510	514	513	583	29	35	
13	1	1	0	0	512	513	511	583	29	35	
14	1	1	0	0	511	513	508	583	29	35	
15	1	1	0	0	508	513	498	584	29	35	
0	1	1	0	0	509	513	498	583	29	35	
1	1	1	0	0	511	513	506	583	29	35	
2	1	1	0	0	508	513	517	583	29	35	
3	1	1	0	0	507	516	520	583	29	35	
4	1	1	0	0	507	514	514	582	29	35	
5	1	1	0	0	512	514	505	583	29	35	
6	1	1	0	0	512	515	503	583	29	35	
7	1	1	0	0	509	512	516	583	29	35	
8	1	1	0	0	509	513	531	583	29	35	
9	1	1	0	0	507	513	524	583	29	35	
10	1	1	0	0	508	510	512	583	29	35	
11	1	1	0	0	510	510	500	583	29	35	
12	1	1	0	0	512	514	476	584	29	35	
13	1	1	0	0	514	513	472	583	29	35	
14	1	1	0	0	511	515	494	583	29	35	
15	1	1	0	0	510	516	513	583	29	35	
0	1	1	0	0	507	513	519	583	29	35	
1	1	1	0	0	511	512	514	583	29	35	
2	1	1	0	0	511	513	514	583	29	35	
3	1	1	0	0	510	511	516	583	29	35	
4	1	1	0	0	513	513	508	584	29	35	
5	1	1	0	0	512	512	509	584	29	35	
6	1	1	0	0	510	512	516	585	29	35	
7	1	1	0	0	511	514	526	584	29	35	
8	1	1	0	0	509	515	520	585	29	35	
9	1	1	0	0	509	511	508	584	29	35	
10	1	1	0	0	510	514	515	584	29	35	
11	1	1	0	0	511	515	505	584	29	35	
12	1	1	0	0	511	514	503	584	29	35	
13	1	1	0	0	510	511	499	584	29	35	
14	1	1	0	0	510	511	493	585	29	35	
15	1	1	0	0	507	513	494	585	29	35	
0	1	1	0	0	508	512	499	585	29	35	
1	1	1	0	0	508	513	505	585	29	35	
2	1	1	0	0	510	512	498	586	29	35	
3	1	1	0	0	510	513	506	585	29	35	
4	1	1	0	0	509	512	514	585	29	35	
5	1	1	0	0	512	515	519	585	29	35	
6	1	1	0	0	511	515	519	585	29	35	
7	1	1	0	0	512	515	516	584	29	35	
8	1	1	0	0	511	514	511	584	29	35	
9	1	1	0	0	512	515	516	585	29	35	
10	1	1	0	0	510	512	512	585	29	35	
11	1	1	0	0	510	515	519	584	29	35	
12	1	1	0	0	510	513	516	584	29	35	
13	1	1	0	0	508	512	512	584	29	35	
14	1	1	0	0	508	513	508	584	29	35	
15	1	1	0	0	510	513	502	584	29	35	
0	1	1	0	0	508	511	507	583	29	35	
1	1	1	0	0	510	513	510	583	29	35	
2	1	1	0	0	513	512	512	583	29	35	
3	1	1	0	0	510	512	511	582	29	35	
4	1	1	0	0	509	511	510	583	29	35	
5	1	1	0	0	511	513	516	583	29	35	
6	1	1	0	0	510	515	515	583	29	35	
7	1	1	0	0	510	512	511	583	29	35	
8	1	1	0	0	512	515	508	583	29	35	
9	1	1	0	0	510	513	509	584	29	35	
10	1	1	0	0	509	513	508	583	29	35	
11	1	1	0	0	512	511	500	583	29	35	
12	1	1	0	0	509	511	513	583	29	35	
13	1	1	0	0	510	515	517	583	29	35	
14	1	1	0	0	510	513	505	583	29	35	
15	1	1	0	0	509	512	501	583	29	35	
0	1	1	0	0	509	514	503	583	29	35	
1	1	1	0	0	508	514	508	583	29	35	
2	1	1	0	0	509	513	504	583	29	35	
3	1	1	0	0	511	513	511	584	29	35	
4	1	1	0	0	511	512	512	584	29	35	
5	1	1	0	0	509	512	522	584	29	35	
6	1	1	0	0	511	512	515	585	29	35	
7	1	1	0	0	510	509	509	584	29	35	
8	1	1	0	0	511	513	497	584	29	35	
9	1	1	0	0	511	513	499	583	29	35	
10	1	1	0	0	510	511	493	584	29	35	
11	1	1	0	0	509	512	502	584	29	35	
12	1	1	0	0	507	514	520	584	29	35	
13	1	1	0	0	510	515	520	584	29	35	
14	1	1	0	0	509	515	512	584	29	35	
15	1	1	0	0	510	515	516	584	29	35	
0	1	1	0	0	509	514	504	585	29	35	
1	1	1	0	0	512	513	502	585	29	35	
2	1	1	0	0	511	513	502	585	29	35	
3	1	1	0	0	508	514	512	584	29	35	
4	1	1	0	0	509	514	510	584	29	35	
5	1	1	0	0	507	513	499	584	29	36	
6	1	1	0	0	508	513	506	584	29	35	
7	1	1	0	0	511	515	513	584	29	35	
8	1	1	0	0	508	514	506	583	29	35	
9	1	1	0	0	511	510	504	584	29	35	
10	1	1	0	0	513	512	500	583	29	35	
11	1	1	0	0	511	514	513	584	29	35	
12	1	1	0	0	509	516	521	584	29	35	
13	1	1	0	0	510	511	518	583	29	35	
14	1	1	0	0	507	513	519	584	29	35	
15	1	1	0	0	512	512	515	583	29	35	
0	1	1	0	0	513	510	501	583	29	35	
1	1	1	0	0	512	516	496	583	29	35	
2	1	1	0	0	510	512	501	583	29	35	
3	1	1	0	0	511	510	502	583	29	35	
4	1	1	0	0	510	512	505	583	29	35	
5	1	1	0	0	508	512	512	583	29	35	
6	1	1	0	0	508	512	515	584	29	35	
7	1	1	0	0	511	515	517	583	29	35	
8	1	1	0	0	513	512	516	583	29	35	
9	1	1	0	0	510	515	513	583	29	35	
10	1	1	0	0	510	512	502	583	29	35	
11	1	1	0	0	509	514	507	583	29	35	
12	1	1	0	0	507	515	510	581	29	35	
13	1	1	0	0	511	512	517	582	29	35	
14	1	1	0	0	509	512	521	583	29	35	
15	1	1	0	0	511	515	520	582	29	35	
0	1	1	0	0	512	510	514	583	29	35	
1	1	1	0	0	511	512	509	583	29	35	
2	1	1	0	0	509	514	507	583	29	35	
3	1	1	0	0	509	513	504	583	29	35	
4	1	1	0	0	510	511	500	583	29	35	
5	1	1	0	0	511	514	505	583	29	35	
6	1	1	0	0	510	515	505	583	29	35	
7	1	1	0	0	510	512	504	583	29	35	
8	1	1	0	0	510	512	508	583	29	35	
9	1	1	0	0	511	513	508	582	29	35	
10	1	1	0	0	510	511	510	583	29	35	
11	1	1	0	0	511	513	511	583	29	35	
12	1	1	0	0	510	514	509	583	29	35	
13	1	1	0	0	511	514	508	583	29	35	
14	1	1	0	0	510	513	512	583	29	35	
15	1	1	0	0	512	511	508	583	29	35	
0	1	1	0	0	512	513	507	583	29	35	
1	1	1	0	0	510	513	513	583	29	35	
2	1	1	0	0	511	515	522	583	29	35	
3	1	1	0	0	509	513	516	583	29	35	
4	1	1	0	0	511	514	510	583	29	35	
5	1	1	0	0	510	513	510	583	29	35	
6	1	1	0	0	506	511	504	583	29	35	
7	1	1	0	0	509	514	500	584	29	35	
8	1	1	0	0	510	512	503	583	29	35	
9	1	1	0	0	511	513	506	584	29	35	
10	1	1	0	0	512	511	507	584	29	35	
11	1	1	0	0	509	512	514	585	29	35	
12	1	1	0	0	509	513	521	585	29	35	
13	1	1	0	0	508	514	526	584	29	35	
14	1	1	0	0	510	513	518	584	29	35	
15	1	1	0	0	511	513	508	583	29	35	
0	1	1	0	0	510	513	496	583	29	35	
1	1	1	0	0	511	512	493	583	29	35	
2	1	1	0	0	510	515	497	584	29	35	
3	1	1	0	0	510	509	498	585	29	35	
4	1	1	0	0	508	512	502	584	29	35	
5	1	1	0	0	508	514	515	585	29	35	
6	1	1	0	0	510	513	513	584	29	35	
7	1	1	0	0	511	513	505	584	29	35	
8	1	1	0	0	511	513	501	584	29	35	
9	1	1	0	0	510	514	508	584	29	35	
10	1	1	0	0	512	513	511	583	29	35	
11	1	1	0	0	511	512	514	582	29	35	
12	1	1	0	0	508	513	524	583	29	35	
13	1	1	0	0	509	511	526	583	29	35	
14	1	1	0	0	511	512	523	583	29	35	
15	1	1	0	0	510	512	511	583	29	35	
0	1	1	0	0	512	512	510	583	29	35	
1	1	1	0	0	507	512	507	583	29	35	
2	1	1	0	0	507	515	517	583	29	35	
3	1	1	0	0	509	513	505	584	29	35	
4	1	1	0	0	511	511	487	583	29	35	
5	1	1	0	0	511	512	496	583	29	35	
6	1	1	0	0	507	512	493	583	29	35	
7	1	1	0	0	510	512	484	584	29	35	
8	1	1	0	0	509	515	498	583	29	35	
9	1	1	0	0	508	515	508	583	29	35	
10	1	1	0	0	509	513	514	583	29	35	
11	1	1	0	0	509	513	517	583	29	35	
12	1	1	0	0	509	512	517	583	29	35	
13	1	1	0	0	511	513	518	583	29	35	
14	1	1	0	0	511	510	511	584	29	35	
15	1	1	0	0	513	512	514	583	29	35	
0	1	1	0	0	512	514	515	583	29	35	
1	1	1	0	0	510	512	517	583	29	35	
2	1	1	0	0	511	512	523	583	29	35	
3	1	1	0	0	511	513	523	583	29	35	
4	1	1	0	0	510	513	526	583	29	35	
5	1	1	0	0	511	512	513	583	29	35	
6	1	1	0	0	511	513	504	584	29	35	
7	1	1	0	0	514	512	495	583	29	35	
8	1	1	0	0	514	515	490	584	29	35	
9	1	1	0	0	511	512	499	584	29	35	
10	1	1	0	0	509	515	508	583	29	35	
11	1	1	0	0	508	513	510	584	29	35	
12	1	1	0	0	509	514	508	585	29	35	
13	1	1	0	0	507	512	510	585	29	35	
14	1	1	0	0	508	513	518	585	29	35	
15	1	1	0	0	511	513	511	584	29	35	
0	1	1	0	0	511	512	508	584	29	35	
1	1	1	0	0	509	513	512	584	29	35	
2	1	1	0	0	510	513	512	584	29	35	
3	1	1	0	0	510	512	511	583	29	35	
4	1	1	0	0	508	511	509	584	29	35	
5	1	1	0	0	510	512	515	584	29	35	
6	1	1	0	0	510	515	521	584	29	35	
7	1	1	0	0	510	516	517	584	29	35	
8	1	1	0	0	509	512	513	584	29	35	
9	1	1	0	0	512	512	511	584	29	35	
10	1	1	0	0	512	513	500	583	29	35	
11	1	1	0	0	512	513	487	583	29	35	
12	1	1	0	0	509	510	504	584	29	35	
13	1	1	0	0	509	513	522	583	29	35	
14	1	1	0	0	509	515	521	583	29	35	
15	1	1	0	0	509	512	503	583	29	35	
0	1	1	0	0	511	513	495	583	29	35	
1	1	1	0	0	512	515	496	584	29	35	
2	1	1	0	0	511	512	484	583	29	35	
3	1	1	0	0	511	510	488	583	29	35	
4	1	1	0	0	508	511	504	584	29	35	
5	1	1	0	0	508	513	512	584	29	35	
6	1	1	0	0	509	511	514	584	29	35	
7	1	1	0	0	510	513	514	584	29	35	
8	1	1	0	0	509	514	515	584	29	35	
9	1	1	0	0	510	516	516	584	29	35	
10	1	1	0	0	511	514	516	583	29	35	
11	1	1	0	0	510	512	511	584	29	35	
12	1	1	0	0	511	513	513	584	29	35	
13	1	1	0	0	510	513	510	584	29	35	
14	1	1	0	0	511	514	512	585	29	35	
15	1	1	0	0	508	514	516	584	29	35	
0	1	1	0	0	510	512	516	585	29	35	
1	1	1	0	0	510	516	516	584	29	35	
2	1	1	0	0	506	515	519	584	29	35	
3	1	1	0	0	507	514	518	584	29	35	
4	1	1	0	0	508	513	517	583	29	35	
5	1	1	0	0	510	513	515	583	29	35	
6	1	1	0	0	509	513	512	584	29	35	
7	1	1	0	0	513	514	506	584	29	35	
8	1	1	0	0	512	515	496	585	29	35	
9	1	1	0	0	513	512	493	584	29	35	
10	1	1	0	0	511	513	498	584	29	35	
11	1	1	0	0	508	512	506	584	29	35	
12	1	1	0	0	508	512	511	584	29	35	
13	1	1	0	0	510	511	507	584	29	35	
14	1	1	0	0	513	511	498	583	29	35	
15	1	1	0	0	512	511	497	583	29	35	
0	1	1	0	0	508	513	502	583	29	35	
1	1	1	0	0	509	511	507	583	29	35	
2	1	1	0	0	510	513	504	583	29	35	
3	1	1	0	0	511	515	515	583	29	35	
4	1	1	0	0	509	515	515	584	29	35	
5	1	1	0	0	508	512	512	583	29	35	
6	1	1	0	0	506	514	512	584	29	35	
7	1	1	0	0	510	512	511	584	29	35	
8	1	1	0	0	510	517	513	584	29	35	
9	1	1	0	0	511	515	513	584	29	35	
10	1	1	0	0	510	513	507	583	29	35	
11	1	1	0	0	510	509	504	583	29	35	
12	1	1	0	0	509	510	508	584	29	35	
13	1	1	0	0	508	515	516	584	29	35	
14	1	1	0	0	509	513	516	584	29	35	
15	1	1	0	0	510	515	515	584	29	35	
0	1	1	0	0	507	513	517	583	29	35	
1	1	1	0	0	511	515	514	584	29	35	
2	1	1	0	0	511	514	510	583	29	35	
3	1	1	0	0	511	511	508	584	29	35	
4	1	1	0	0	513	510	509	584	29	35	
5	1	1	0	0	512	511	497	584	29	35	
6	1	1	0	0	512	513	502	584	29	35	
7	1	1	0	0	512	513	514	583	29	35	
8	1	1	0	0	508	514	520	583	29	35	
9	1	1	0	0	511	515	527	584	29	35	
10	1	1	0	0	507	514	524	584	29	35	
11	1	1	0	0	511	513	511	584	29	35	
12	1	1	0	0	512	512	499	583	29	35	
13	1	1	0	0	511	512	487	584	29	35	
14	1	1	0	0	513	511	484	584	29	35	
15	1	1	0	0	511	511	487	584	29	35	
0	1	1	0	0	511	511	497	584	29	35	
1	1	1	0	0	511	514	508	584	29	35	
2	1	1	0	0	510	515	512	584	29	35	
3	1	1	0	0	508	513	515	583	29	35	
4	1	1	0	0	510	513	520	583	29	35	
5	1	1	0	0	509	516	518	584	29	35	
6	1	1	0	0	509	514	517	584	29	35	
7	1	1	0	0	510	511	515	584	29	35	
8	1	1	0	0	512	512	514	583	29	35	
9	1	1	0	0	510	515	514	584	29	35	
10	1	1	0	0	512	513	505	585	29	35	
11	1	1	0	0	511	513	505	584	29	35	
12	1	1	0	0	510	510	504	584	29	35	
13	1	1	0	0	510	510	503	584	29	35	
14	1	1	0	0	511	511	508	583	29	35	
15	1	1	0	0	510	514	511	583	29	35	
0	1	1	0	0	507	515	512	583	29	35	
1	1	1	0	0	509	515	511	584	29	35	
2	1	1	0	0	510	513	513	584	29	35	
3	1	1	0	0	511	512	512	583	29	35	
4	1	1	0	0	512	514	511	584	29	35	
5	1	1	0	0	512	518	511	584	29	35	
6	1	1	0	0	510	512	503	584	29	35	
7	1	1	0	0	510	510	514	584	29	35	
8	1	1	0	0	508	514	528	583	29	35	
9	1	1	0	0	508	513	536	584	29	35	
10	1	1	0	0	507	511	521	583	29	35	
11	1	1	0	0	508	510	500	583	29	35	
12	1	1	0	0	510	511	492	583	29	35	
13	1	1	0	0	510	514	493	583	29	35	
14	1	1	0	0	512	512	483	583	29	35	
15	1	1	0	0	513	513	488	583	29	35	
0	1	1	0	0	510	517	515	584	29	35	
1	1	1	0	0	508	516	515	584	29	35	
2	1	1	0	0	509	512	500	583	29	35	
3	1	1	0	0	511	512	508	584	29	35	
4	1	1	0	0	509	511	509	583	29	35	
5	1	1	0	0	510	511	504	583	29	35	
6	1	1	0	0	510	511	501	584	29	35	
7	1	1	0	0	510	512	505	583	29	35	
8	1	1	0	0	509	516	512	583	29	35	
9	1	1	0	0	509	516	514	583	29	35	
10	1	1	0	0	510	515	512	583	29	35	
11	1	1	0	0	512	513	506	584	29	35	
12	1	1	0	0	511	511	511	584	29	35	
13	1	1	0	0	511	512	516	585	29	35	
14	1	1	0	0	510	511	515	584	29	35	
15	1	1	0	0	512	512	508	584	29	35	
0	1	1	0	0	511	512	512	583	29	35	
1	1	1	0	0	512	511	518	584	29	35	
2	1	1	0	0	511	516	526	583	29	35	
3	1	1	0	0	510	514	519	583	29	35	
4	1	1	0	0	510	513	518	583	29	35	
5	1	1	0	0	508	512	523	584	29	35	
6	1	1	0	0	510	513	514	584	29	35	
7	1	1	0	0	510	512	499	583	29	35	
8	1	1	0	0	512	512	479	583	29	35	
9	1	1	0	0	513	515	499	584	29	35	
10	1	1	0	0	508	514	501	584	29	35	
11	1	1	0	0	510	513	505	584	29	35	
12	1	1	0	0	510	515	508	584	29	35	
13	1	1	0	0	508	513	503	583	29	35	
14	1	1	0	0	509	512	502	583	29	35	
15	1	1	0	0	511	512	507	583	29	35	
0	1	1	0	0	509	513	520	583	29	35	
1	1	1	0	0	508	513	528	584	29	35	
2	1	1	0	0	508	513	522	583	29	35	
3	1	1	0	0	510	512	512	584	29	35	
4	1	1	0	0	511	512	503	584	29	35	
5	1	1	0	0	512	514	491	584	29	35	
6	1	1	0	0	512	512	494	583	29	35	
7	1	1	0	0	508	513	505	583	29	35	
8	1	1	0	0	509	515	514	583	29	35	
9	1	1	0	0	508	513	516	583	29	35	
10	1	1	0	0	508	513	512	583	29	35	
11	1	1	0	0	511	514	509	583	29	35	
12	1	1	0	0	509	513	508	584	29	35	
13	1	1	0	0	509	510	505	584	29	35	
14	1	1	0	0	511	514	509	583	29	35	
15	1	1	0	0	511	513	511	584	29	35	
0	1	1	0	0	509	513	515	584	29	35	
1	1	1	0	0	511	512	512	584	29	35	
2	1	1	0	0	510	511	513	583	29	35	
3	1	1	0	0	512	511	510	583	29	35	
4	1	1	0	0	509	512	509	583	29	35	
5	1	1	0	0	511	513	507	583	29	35	
6	1	1	0	0	510	513	510	583	29	35	
7	1	1	0	0	511	513	510	583	29	35	
8	1	1	0	0	511	514	515	584	29	35	
9	1	1	0	0	510	513	527	583	29	35	
10	1	1	0	0	511	513	520	585	29	35	
11	1	1	0	0	510	513	526	584	29	35	
12	1	1	0	0	511	513	515	584	29	35	
13	1	1	0	0	510	512	511	584	29	35	
14	1	1	0	0	510	510	502	584	29	35	
15	1	1	0	0	511	509	488	584	29	35	
0	1	1	0	0	508	510	493	584	29	35	
1	1	1	0	0	510	513	493	583	29	35	
2	1	1	0	0	512	515	496	583	29	35	
3	1	1	0	0	508	516	503	584	29	35	
4	1	1	0	0	508	513	502	584	29	35	
5	1	1	0	0	511	513	508	584	29	35	
6	1	1	0	0	510	513	510	585	29	35	
7	1	1	0	0	509	511	510	584	29	35	
8	1	1	0	0	509	511	515	584	29	35	
9	1	1	0	0	511	514	519	584	29	35	
10	1	1	0	0	511	515	511	583	29	35	
11	1	1	0	0	510	512	503	583	29	35	
12	1	1	0	0	513	513	506	584	29	35	
13	1	1	0	0	507	511	512	583	29	35	
14	1	1	0	0	509	513	508	584	29	35	
15	1	1	0	0	511	512	510	583	29	35	
0	1	1	0	0	509	512	510	584	29	35	
1	1	1	0	0	509	515	508	584	29	35	
2	1	1	0	0	510	511	508	583	29	35	
3	1	1	0	0	510	513	519	584	29	35	
4	1	1	0	0	509	515	529	583	29	35	
5	1	1	0	0	508	511	530	583	29	35	
6	1	1	0	0	508	510	523	583	29	35	
7	1	1	0	0	510	514	517	583	29	35	
8	1	1	0	0	511	514	506	583	29	35	
9	1	1	0	0	514	513	491	584	29	35	
10	1	1	0	0	513	512	483	583	29	35	
11	1	1	0	0	512	512	489	583	29	35	
12	1	1	0	0	509	512	510	583	29	35	
13	1	1	0	0	509	515	514	584	29	35	
14	1	1	0	0	510	515	518	583	29	35	
15	1	1	0	0	511	514	518	583	29	35	
0	1	1	0	0	509	512	505	583	29	35	
1	1	1	0	0	508	512	502	583	29	35	
2	1	1	0	0	510	512	503	583	29	35	
3	1	1	0	0	511	511	510	583	29	35	
4	1	1	0	0	510	512	506	583	29	35	
5	1	1	0	0	510	510	497	583	29	35	
6	1	1	0	0	511	514	505	583	29	35	
7	1	1	0	0	507	514	515	584	29	35	
8	1	1	0	0	508	514	518	584	29	35	
9	1	1	0	0	508	514	518	583	29	35	
10	1	1	0	0	513	512	516	583	29	35	
11	1	1	0	0	511	512	513	583	29	35	
12	1	1	0	0	510	513	506	583	29	35	
13	1	1	0	0	510	514	510	583	29	35	
14	1	1	0	0	510	512	514	584	29	35	
15	1	1	0	0	508	512	519	584	29	35	
0	1	1	0	0	510	513	508	584	29	35	
1	1	1	0	0	511	511	495	585	29	35	
2	1	1	0	0	512	511	499	584	29	35	
3	1	1	0	0	509	515	499	585	29	35	
4	1	1	0	0	510	516	496	584	29	35	
5	1	1	0	0	511	515	499	584	29	35	
6	1	1	0	0	511	514	509	585	29	35	
7	1	1	0	0	511	513	515	584	29	35	
8	1	1	0	0	507	512	515	584	29	35	
9	1	1	0	0	508	514	516	584	29	35	
10	1	1	0	0	507	513	519	584	29	35	
11	1	1	0	0	510	509	523	585	29	35	
12	1	1	0	0	511	514	518	585	29	35	
13	1	1	0	0	511	515	514	584	29	35	
14	1	1	0	0	512	513	507	585	29	35	
15	1	1	0	0	509	514	505	584	29	35	
0	1	1	0	0	510	513	499	583	29	35	
1	1	1	0	0	511	514	500	583	29	35	
2	1	1	0	0	511	511	499	583	29	35	
3	1	1	0	0	510	511	513	583	29	35	
4	1	1	0	0	510	512	516	583	29	35	
5	1	1	0	0	509	512	511	584	29	35	
6	1	1	0	0	509	513	503	583	29	35	
7	1	1	0	0	509	512	502	583	29	35	
8	1	1	0	0	511	513	508	584	29	35	
9	1	1	0	0	509	515	503	584	29	35	
10	1	1	0	0	510	511	504	584	29	35	
11	1	1	0	0	509	511	520	584	29	35	
12	1	1	0	0	508	514	522	585	29	35	
13	1	1	0	0	508	515	517	584	29	35	
14	1	1	0	0	509	512	506	583	29	35	
15	1	1	0	0	509	512	495	583	29	35	
0	1	1	0	0	510	510	495	583	29	35	
1	1	1	0	0	512	514	502	583	29	35	
2	1	1	0	0	511	515	512	583	29	35	
3	1	1	0	0	507	516	514	583	29	35	
4	1	1	0	0	512	512	512	583	29	35	
5	1	1	0	0	510	512	512	583	29	35	
6	1	1	0	0	508	511	514	584	29	35	
7	1	1	0	0	510	511	514	584	29	35	
8	1	1	0	0	510	512	512	583	29	35	
9	1	1	0	0	510	514	510	583	29	35	
10	1	1	0	0	512	514	512	583	29	35	
11	1	1	0	0	511	511	512	583	29	35	
12	1	1	0	0	511	511	510	583	29	35	
13	1	1	0	0	511	512	511	583	29	35	
14	1	1	0	0	511	515	518	584	29	35	
15	1	1	0	0	512	516	520	583	29	35	
0	1	1	0	0	512	513	526	584	29	35	
1	1	1	0	0	509	512	515	583	29	35	
2	1	1	0	0	509	511	501	584	29	35	
3	1	1	0	0	510	514	498	584	29	35	
4	1	1	0	0	507	513	493	583	29	35	
5	1	1	0	0	510	513	499	583	29	35	
6	1	1	0	0	511	512	497	583	29	35	
7	1	1	0	0	511	510	501	583	29	35	
8	1	1	0	0	510	513	513	584	29	35	
9	1	1	0	0	507	514	519	584	29	35	
10	1	1	0	0	506	514	514	583	29	35	
11	1	1	0	0	509	513	497	584	29	35	
12	1	1	0	0	510	511	492	583	29	35	
13	1	1	0	0	514	512	500	584	29	35	
14	1	1	0	0	511	512	510	583	29	35	
15	1	1	0	0	507	514	526	584	29	35	
0	1	1	0	0	508	512	521	583	29	35	
1	1	1	0	0	511	513	513	583	29	35	
2	1	1	0	0	514	511	505	583	29	35	
3	1	1	0	0	512	515	495	583	29	35	
4	1	1	0	0	513	512	494	583	29	35	
5	1	1	0	0	511	512	503	583	29	35	
6	1	1	0	0	509	515	511	583	29	35	
7	1	1	0	0	510	514	513	584	29	35	
8	1	1	0	0	510	515	516	584	29	35	
9	1	1	0	0	509	514	517	583	29	35	
10	1	1	0	0	513	513	516	583	29	35	
11	1	1	0	0	510	511	518	583	29	35	
12	1	1	0	0	510	514	519	584	29	35	
13	1	1	0	0	509	514	523	584	29	35	
14	1	1	0	0	510	513	519	583	29	35	
15	1	1	0	0	511	515	512	583	29	35	
0	1	1	0	0	513	513	509	584	29	35	
1	1	1	0	0	511	515	503	584	29	35	
2	1	1	0	0	511	513	505	584	29	35	
3	1	1	0	0	508	513	508	584	29	35	
4	1	1	0	0	509	513	511	584	29	35	
5	1	1	0	0	508	514	507	584	29	35	
6	1	1	0	0	509	512	501	584	29	35	
7	1	1	0	0	510	511	507	583	29	35	
8	1	1	0	0	508	512	511	584	29	35	
9	1	1	0	0	508	512	501	583	29	35	
10	1	1	0	0	510	511	495	583	29	35	
11	1	1	0	0	510	513	496	583	29	35	
12	1	1	0	0	511	514	509	583	29	35	
13	1	1	0	0	509	512	513	583	29	35	
14	1	1	0	0	510	512	508	583	29	35	
15	1	1	0	0	509	512	513	584	29	35	
0	1	1	0	0	510	512	514	584	29	35	
1	1	1	0	0	511	516	513	584	29	35	
2	1	1	0	0	510	514	505	583	29	35	
3	1	1	0	0	510	510	500	583	29	35	
4	1	1	0	0	509	510	508	583	29	35	
5	1	1	0	0	512	514	511	583	29	35	
6	1	1	0	0	511	514	513	583	29	35	
7	1	1	0	0	511	513	512	583	29	35	
8	1	1	0	0	512	513	510	583	29	35	
9	1	1	0	0	508	515	511	583	29	35	
10	1	1	0	0	510	513	510	583	29	35	
11	1	1	0	0	512	511	513	584	29	35	
12	1	1	0	0	511	512	510	584	29	35	
13	1	1	0	0	508	513	510	584	29	35	
14	1	1	0	0	508	514	510	584	29	35	
15	1	1	0	0	509	512	511	583	29	35	
0	1	1	0	0	510	515	510	583	29	35	
1	1	1	0	0	509	512	511	583	29	35	
2	1	1	0	0	509	513	507	582	29	35	
3	1	1	0	0	507	512	508	583	29	35	
4	1	1	0	0	510	512	511	583	29	35	
5	1	1	0	0	507	516	515	583	29	35	
6	1	1	0	0	510	512	526	584	29	35	
7	1	1	0	0	511	515	526	583	29	35	
8	1	1	0	0	509	515	525	583	29	35	
9	1	1	0	0	510	511	520	583	29	35	
10	1	1	0	0	513	513	507	583	29	35	
11	1	1	0	0	512	514	499	583	29	35	
12	1	1	0	0	512	511	479	583	29	35	
13	1	1	0	0	512	507	470	583	29	35	
14	1	1	0	0	511	509	486	583	29	35	
15	1	1	0	0	508	512	505	583	29	35	
0	1	1	0	0	506	515	513	583	29	35	
1	1	1	0	0	507	514	521	583	29	35	
2	1	1	0	0	507	514	521	583	29	35	
3	1	1	0	0	508	512	521	585	29	35	
4	1	1	0	0	509	514	513	584	29	35	
5	1	1	0	0	510	515	507	584	29	35	
6	1	1	0	0	512	514	500	583	29	35	
7	1	1	0	0	509	512	496	583	29	35	
8	1	1	0	0	511	512	496	583	29	35	
9	1	1	0	0	513	513	508	583	29	35	
10	1	1	0	0	511	513	512	583	29	35	
11	1	1	0	0	508	514	518	583	29	35	
12	1	1	0	0	510	512	521	583	29	35	
13	1	1	0	0	511	514	519	584	29	35	
14	1	1	0	0	509	514	516	584	29	35	
15	1	1	0	0	512	513	511	584	29	35	
0	1	1	0	0	511	512	523	584	29	35	
1	1	1	0	0	510	512	529	584	29	35	
2	1	1	0	0	510	513	529	585	29	35	
3	1	1	0	0	511	513	514	583	29	35	
4	1	1	0	0	512	511	493	583	29	35	
5	1	1	0	0	513	513	497	584	29	35	
6	1	1	0	0	508	515	481	584	29	35	
7	1	1	0	0	510	510	474	585	29	35	
8	1	1	0	0	506	508	480	584	29	35	
9	1	1	0	0	507	513	505	584	29	35	
10	1	1	0	0	508	515	512	585	29	35	
11	1	1	0	0	506	512	511	585	29	35	
12	1	1	0	0	510	512	510	585	29	35	
13	1	1	0	0	512	515	515	584	29	35	
14	1	1	0	0	513	512	519	585	29	35	
15	1	1	0	0	512	512	513	584	29	35	
0	1	1	0	0	512	512	514	584	29	35	
1	1	1	0	0	508	512	522	585	29	35	
2	1	1	0	0	508	514	525	584	29	35	
3	1	1	0	0	512	512	513	585	29	35	
4	1	1	0	0	513	511	505	584	29	35	
5	1	1	0	0	511	513	507	585	29	35	
6	1	1	0	0	511	515	511	585	29	35	
7	1	1	0	0	508	514	509	584	29	35	
8	1	1	0	0	511	515	501	584	29	35	
9	1	1	0	0	509	516	510	584	29	35	
10	1	1	0	0	508	511	509	583	29	35	
11	1	1	0	0	511	513	507	584	29	35	
12	1	1	0	0	510	515	508	583	29	35	
13	1	1	0	0	511	513	510	584	29	35	
14	1	1	0	0	512	511	511	584	29	35	
15	1	1	0	0	510	512	508	584	29	35	
0	1	1	0	0	510	511	501	584	29	35	
1	1	1	0	0	508	512	508	584	29	35	
2	1	1	0	0	510	512	513	584	29	35	
3	1	1	0	0	509	511	512	583	29	35	
4	1	1	0	0	510	511	512	583	29	35	
5	1	1	0	0	511	512	511	584	29	35	
6	1	1	0	0	512	513	511	583	29	35	
7	1	1	0	0	511	515	511	583	29	35	
8	1	1	0	0	510	513	513	583	29	35	
9	1	1	0	0	510	513	513	583	29	35	
10	1	1	0	0	510	515	515	584	29	35	
11	1	1	0	0	509	515	518	583	29	35	
12	1	1	0	0	511	514	510	584	29	35	
13	1	1	0	0	510	512	494	584	29	35	
14	1	1	0	0	511	512	493	584	29	35	
15	1	1	0	0	511	512	508	584	29	35	
0	1	1	0	0	508	513	516	584	29	35	
1	1	1	0	0	509	513	516	583	29	35	
2	1	1	0	0	512	513	511	583	29	35	
3	1	1	0	0	508	511	511	583	29	35	
4	1	1	0	0	512	512	510	583	29	35	
5	1	1	0	0	510	512	505	583	29	35	
6	1	1	0	0	510	513	502	584	29	35	
7	1	1	0	0	511	514	496	583	29	35	
8	1	1	0	0	509	514	505	584	29	35	
9	1	1	0	0	510	512	509	584	29	35	
10	1	1	0	0	509	512	513	583	29	35	
11	1	1	0	0	511	512	511	583	29	35	
12	1	1	0	0	511	513	512	583	29	35	
13	1	1	0	0	510	515	511	583	29	36	
14	1	1	0	0	510	512	508	583	29	35	
15	1	1	0	0	509	511	506	583	29	35	
0	1	1	0	0	507	510	508	583	29	35	
1	1	1	0	0	510	514	510	583	29	35	
2	1	1	0	0	509	513	514	583	29	35	
3	1	1	0	0	511	513	524	584	29	35	
4	1	1	0	0	508	513	528	583	29	35	
5	1	1	0	0	509	511	523	583	29	35	
6	1	1	0	0	510	512	510	584	29	35	
7	1	1	0	0	512	513	503	583	29	35	
8	1	1	0	0	511	514	492	584	29	35	
9	1	1	0	0	511	508	489	583	29	35	
10	1	1	0	0	510	512	489	583	29	35	
11	1	1	0	0	509	510	506	583	29	35	
12	1	1	0	0	509	515	523	583	29	35	
13	1	1	0	0	510	518	531	584	29	35	
14	1	1	0	0	509	515	517	583	29	35	
15	1	1	0	0	511	510	514	584	29	35	
0	1	1	0	0	510	510	507	583	29	35	
1	1	1	0	0	511	512	498	583	29	35	
2	1	1	0	0	513	512	484	584	29	35	
3	1	1	0	0	510	512	490	583	29	35	
4	1	1	0	0	507	511	507	583	29	35	
5	1	1	0	0	507	512	518	584	29	35	
6	1	1	0	0	509	515	533	583	29	35	
7	1	1	0	0	507	513	532	583	29	35	
8	1	1	0	0	508	513	519	583	29	35	
9	1	1	0	0	512	513	499	583	29	35	
10	1	1	0	0	512	513	481	583	29	35	
11	1	1	0	0	510	513	492	583	29	35	
12	1	1	0	0	510	514	508	584	29	35	
13	1	1	0	0	509	515	510	583	29	35	
14	1	1	0	0	510	512	507	583	29	35	
15	1	1	0	0	510	512	508	583	29	35	
0	1	1	0	0	510	512	511	583	29	35	
1	1	1	0	0	511	513	511	583	29	35	
2	1	1	0	0	509	513	522	583	29	35	
3	1	1	0	0	512	512	519	583	29	35	
4	1	1	0	0	512	514	508	583	29	35	
5	1	1	0	0	510	514	499	583	29	35	
6	1	1	0	0	512	512	499	584	29	35	
7	1	1	0	0	509	514	497	584	29	35	
8	1	1	0	0	511	511	496	584	29	35	
9	1	1	0	0	510	512	509	584	29	35	
10	1	1	0	0	509	512	518	584	29	35	
11	1	1	0	0	508	514	524	585	29	35	
12	1	1	0	0	509	516	521	584	29	35	
13	1	1	0	0	510	512	515	584	29	35	
14	1	1	0	0	512	513	512	584	29	35	
15	1	1	0	0	513	515	508	585	29	35	
0	1	1	0	0	510	515	508	585	29	35	
1	1	1	0	0	509	510	500	584	29	35	
2	1	1	0	0	508	512	523	585	29	35	
3	1	1	0	0	505	515	534	585	29	35	
4	1	1	0	0	507	513	536	585	29	35	
5	1	1	0	0	509	515	525	586	29	35	
6	1	1	0	0	513	514	519	586	29	35	
7	1	1	0	0	514	513	512	586	29	35	
8	1	1	0	0	511	512	496	585	29	35	
9	1	1	0	0	510	509	525	585	29	35	
10	1	1	0	0	503	512	553	585	29	36	
11	1	1	0	0	507	518	548	585	29	35	
12	1	1	0	0	512	517	515	585	29	35	
13	1	1	0	0	513	514	476	586	29	35	
14	1	1	0	0	517	515	475	585	29	35	
15	1	1	0	0	511	516	478	586	29	35	
0	1	1	0	0	510	511	455	586	29	35	
1	1	1	0	0	508	511	495	586	29	35	
2	1	1	0	0	505	517	519	585	29	35	
3	1	1	0	0	508	518	496	585	29	35	
4	1	1	0	0	513	512	446	585	29	36	
5	1	1	0	0	513	509	433	584	29	36	
6	1	1	0	0	510	505	457	584	29	35	
7	1	1	0	0	506	508	494	583	29	36	
8	1	1	0	0	503	512	523	584	29	35	
9	1	1	0	0	507	511	526	584	29	36	
10	1	1	0	0	509	513	530	583	29	35	
11	1	1	0	0	508	509	529	584	29	35	
12	1	1	0	0	510	511	530	584	29	36	
13	1	1	0	0	508	513	534	584	29	36	
14	1	1	0	0	514	513	528	584	29	36	
15	1	1	0	0	512	514	521	583	29	36	
0	1	1	0	0	511	513	520	583	29	36	
1	1	1	0	0	508	513	512	582	29	36	
2	1	1	0	0	511	512	509	583	29	36	
3	1	1	0	0	511	514	525	583	29	36	
4	1	1	0	0	510	516	526	583	29	36	
5	1	1	0	0	510	516	529	583	29	35	
6	1	1	0	0	510	515	522	583	28	35	
7	1	1	0	0	512	513	510	583	29	36	
8	1	1	0	0	511	511	503	583	28	35	
9	1	1	0	0	513	512	512	584	29	35	
10	1	1	0	0	509	515	544	583	29	35	
11	1	1	0	0	508	516	553	584	29	36	
12	1	1	0	0	508	517	575	583	28	35	
13	1	1	0	0	506	515	618	584	29	35	
14	1	1	0	0	505	515	630	583	28	35	
15	1	1	0	0	508	514	587	584	28	35	
0	1	1	0	0	515	515	537	584	28	35	
1	1	1	0	0	520	519	482	585	28	35	
2	1	1	0	0	520	505	374	585	28	35	
3	1	1	0	0	523	497	297	585	28	35	
4	1	1	0	0	516	508	304	585	28	35	
5	1	1	0	0	510	511	358	585	29	35	
6	1	1	0	0	500	510	438	585	28	35	
7	1	1	0	0	494	515	513	585	28	35	
8	1	1	0	0	493	518	557	585	28	35	
9	1	1	0	0	497	515	544	585	28	35	
10	1	1	0	0	506	510	535	585	28	35	
11	1	1	0	0	508	510	536	585	28	35	
12	1	1	0	0	512	514	557	585	28	35	
13	1	1	0	0	509	515	571	585	28	35	
14	1	1	0	0	511	509	563	585	28	35	
15	1	1	0	0	515	513	563	586	28	35	
0	1	1	0	0	515	512	555	586	28	35	
1	1	1	0	0	518	513	514	586	28	35	
2	1	1	0	0	524	511	470	586	28	35	
3	1	1	0	0	518	506	447	587	28	35	
4	1	1	0	0	513	515	464	585	28	35	
5	1	1	0	0	503	512	474	586	28	35	
6	1	1	0	0	497	514	491	588	28	35	
7	1	1	0	0	499	513	492	587	28	35	
8	1	1	0	0	505	514	502	588	27	35	
9	1	1	0	0	507	513	508	589	27	35	
10	1	1	0	0	511	515	507	589	27	35	
11	1	1	0	0	511	514	515	590	27	35	
12	1	1	0	0	511	515	522	589	27	35	
13	1	1	0	0	510	515	532	589	27	35	
14	1	1	0	0	508	512	534	589	27	35	
15	1	1	0	0	510	513	536	589	27	35	
0	1	1	0	0	508	513	531	589	27	35	
1	1	1	0	0	510	514	532	589	27	35	
2	1	1	0	0	509	515	545	589	26	35	
3	1	1	0	0	511	518	554	590	26	35	
4	1	1	0	0	520	517	580	590	26	35	
5	1	1	0	0	517	519	616	591	26	35	
6	1	1	0	0	508	522	668	590	26	35	
7	1	1	0	0	502	518	612	591	26	35	
8	1	1	0	0	516	511	495	591	26	35	
9	1	1	0	0	526	506	419	590	26	35	
10	1	1	0	0	524	512	379	591	26	35	
11	1	1	0	0	518	510	316	590	26	35	
12	1	1	0	0	513	503	369	590	26	35	
13	1	1	0	0	499	505	446	590	26	35	
14	1	1	0	0	494	512	484	590	25	35	
15	1	1	0	0	500	515	482	591	25	35	
0	1	1	0	0	507	513	431	590	25	35	
1	1	1	0	0	513	514	431	590	25	35	
2	1	1	0	0	509	515	446	590	25	35	
3	1	1	0	0	505	510	471	589	25	35	
4	1	1	0	0	504	512	518	590	25	35	
5	1	1	0	0	503	515	547	588	25	35	
6	1	1	0	0	502	515	559	588	25	35	
7	1	1	0	0	511	517	558	588	25	35	
8	1	1	0	0	510	515	555	587	25	35	
9	1	1	0	0	511	515	548	587	24	35	
10	1	1	0	0	512	512	542	587	24	35	
11	1	1	0	0	512	514	540	587	24	35	
12	1	1	0	0	512	510	523	588	24	35	
13	1	1	0	0	514	513	542	586	24	35	
14	1	1	0	0	510	515	547	587	24	35	
15	1	1	0	0	512	515	536	588	24	35	
0	1	1	0	0	511	516	558	588	24	35	
1	1	1	0	0	512	516	547	587	24	35	
2	1	1	0	0	511	516	531	587	24	35	
3	1	1	0	0	514	518	545	587	24	35	
4	1	1	0	0	508	517	535	587	24	35	
5	1	1	0	0	513	515	571	587	24	35	
6	1	1	0	0	512	514	534	588	24	36	
7	1	1	0	0	513	514	499	588	24	36	
8	1	1	0	0	512	507	476	588	24	36	
9	1	1	0	0	511	504	453	588	24	36	
10	1	1	0	0	512	507	429	588	24	36	
11	1	1	0	0	512	505	392	588	24	36	
12	1	1	0	0	512	510	418	588	24	36	
13	1	1	0	0	509	509	425	588	24	36	
14	1	1	0	0	506	507	443	588	24	36	
15	1	1	0	0	505	510	483	587	24	36	
0	1	1	0	0	505	515	508	587	24	36	
1	1	1	0	0	506	515	510	587	24	36	
2	1	1	0	0	506	512	526	587	24	36	
3	1	1	0	0	507	514	549	587	24	36	
4	1	1	0	0	507	517	550	588	24	36	
5	1	1	0	0	509	515	543	588	25	36	
6	1	1	0	0	511	515	536	588	25	36	
7	1	1	0	0	514	514	528	588	25	36	
8	1	1	0	0	512	515	531	588	25	36	
9	1	1	0	0	513	514	526	588	25	36	
10	1	1	0	0	515	515	534	588	25	36	
11	1	1	0	0	515	514	542	588	25	36	
12	1	1	0	0	514	513	539	588	25	36	
13	1	1	0	0	512	511	519	589	25	36	
14	1	1	0	0	515	515	510	589	25	36	
15	1	1	0	0	515	511	495	590	25	36	
0	1	1	0	0	513	508	471	590	25	36	
1	1	1	0	0	515	512	500	591	26	36	
2	1	1	0	0	507	515	516	591	26	36	
3	1	1	0	0	509	512	503	591	26	36	
4	1	1	0	0	510	511	498	590	26	36	
5	1	1	0	0	508	515	525	590	26	36	
6	1	1	0	0	508	514	531	590	26	37	
7	1	1	0	0	510	513	504	589	26	37	
8	1	1	0	0	510	509	467	589	26	37	
9	1	1	0	0	512	512	476	588	26	37	
10	1	1	0	0	508	517	510	588	27	37	
11	1	1	0	0	504	518	526	588	27	36	
12	1	1	0	0	502	510	543	588	27	37	
13	1	1	0	0	505	512	538	588	27	37	
14	1	1	0	0	513	516	529	587	27	37	
15	1	1	0	0	512	512	497	587	27	37	
0	1	1	0	0	508	508	515	586	27	37	
1	1	1	0	0	499	510	564	585	27	37	
2	1	1	0	0	503	512	514	584	27	37	
3	1	1	0	0	509	510	463	583	27	37	
4	1	1	0	0	518	518	440	583	27	36	
5	1	1	0	0	515	515	432	584	27	36	
6	1	1	0	0	508	510	488	583	27	36	
7	1	1	0	0	497	504	564	583	27	36	
8	1	1	0	0	491	513	679	582	27	36	
9	1	1	0	0	495	523	638	582	28	36	
10	1	1	0	0	515	527	508	582	27	36	
11	1	1	0	0	523	512	395	582	27	36	
12	1	1	0	0	522	500	281	581	27	36	
13	1	1	0	0	519	493	275	582	28	36	
14	1	1	0	0	504	506	357	580	27	36	
15	1	1	0	0	502	511	438	580	27	36	
0	1	1	0	0	500	518	499	579	27	36	
1	1	1	0	0	498	519	519	579	27	36	
2	1	1	0	0	503	512	516	579	27	36	
3	1	1	0	0	504	515	554	579	27	36	
4	1	1	0	0	507	517	564	579	27	36	
5	1	1	0	0	507	518	575	579	27	36	
6	1	1	0	0	510	512	553	579	27	36	
7	1	1	0	0	513	510	560	579	27	36	
8	1	1	0	0	516	515	563	579	27	36	
9	1	1	0	0	517	512	552	579	27	36	
10	1	1	0	0	516	511	536	579	27	36	
11	1	1	0	0	515	509	514	580	27	36	
12	1	1	0	0	515	510	523	580	27	36	
13	1	1	0	0	514	515	540	580	27	36	
14	1	1	0	0	512	516	541	582	27	36	
15	1	1	0	0	515	515	524	581	27	36	
0	1	1	0	0	511	511	519	582	27	36	
1	1	1	0	0	514	511	528	582	27	36	
2	1	1	0	0	514	515	520	582	27	36	
3	1	1	0	0	514	513	515	583	27	36	
4	1	1	0	0	505	510	511	584	27	36	
5	1	1	0	0	511	514	501	584	27	36	
6	1	1	0	0	514	518	489	584	27	36	
7	1	1	0	0	512	518	493	584	27	36	
8	1	1	0	0	502	512	495	585	27	36	
9	1	1	0	0	504	511	493	583	27	36	
10	1	1	0	0	517	517	487	584	27	36	
11	1	1	0	0	510	510	497	583	27	36	
12	1	1	0	0	507	509	524	584	27	36	
13	1	1	0	0	505	512	510	584	27	36	
14	1	1	0	0	514	515	474	584	27	36	
15	1	1	0	0	520	523	491	583	27	36	
0	1	1	0	0	504	510	504	583	27	36	
1	1	1	0	0	509	507	477	583	27	36	
2	1	1	0	0	508	507	475	582	27	36	
3	1	1	0	0	505	518	546	583	28	36	
4	1	1	0	0	504	513	557	583	28	36	
5	1	1	0	0	516	515	563	581	28	36	
6	1	1	0	0	512	513	570	581	28	36	
7	1	1	0	0	504	515	543	582	28	36	
8	1	1	0	0	507	520	516	581	28	36	
9	1	1	0	0	515	515	465	581	28	35	
10	1	1	0	0	518	508	426	580	28	35	
11	1	1	0	0	515	510	445	580	28	35	
12	1	1	0	0	508	508	432	580	28	35	
13	1	1	0	0	508	504	449	579	29	36	
14	1	1	0	0	502	505	480	579	28	35	
15	1	1	0	0	503	508	508	579	29	36	
0	1	1	0	0	504	516	530	577	29	36	
1	1	1	0	0	503	519	531	577	29	36	
2	1	1	0	0	508	516	533	576	29	36	
3	1	1	0	0	512	513	539	576	29	36	
4	1	1	0	0	512	514	542	575	29	36	
5	1	1	0	0	507	513	543	575	29	35	
6	1	1	0	0	511	513	546	575	29	36	
7	1	1	0	0	518	514	551	574	29	35	
8	1	1	0	0	512	512	545	574	29	36	
9	1	1	0	0	514	515	549	573	29	36	
10	1	1	0	0	511	510	539	572	29	36	
11	1	1	0	0	511	512	552	572	29	36	
12	1	1	0	0	513	513	540	572	29	36	
13	1	1	0	0	518	515	508	571	29	35	
14	1	1	0	0	517	511	506	571	29	35	
15	1	1	0	0	517	513	510	571	29	35	
0	1	1	0	0	521	522	525	571	29	35	
1	1	1	0	0	509	508	539	570	29	35	
2	1	1	0	0	509	504	548	569	29	35	
3	1	1	0	0	514	510	518	570	30	35	
4	1	1	0	0	515	508	495	569	30	35	
5	1	1	0	0	523	511	459	569	30	35	
6	1	1	0	0	517	507	438	569	30	35	
7	1	1	0	0	511	503	440	569	30	35	
8	1	1	0	0	510	510	471	568	30	35	
9	1	1	0	0	503	516	508	568	30	35	
10	1	1	0	0	504	515	516	567	30	35	
11	1	1	0	0	512	516	519	567	30	35	
12	1	1	0	0	515	518	525	567	30	35	
13	1	1	0	0	513	517	543	567	30	35	
14	1	1	0	0	507	512	545	566	30	35	
15	1	1	0	0	508	511	534	567	30	35	
0	1	1	0	0	513	518	524	566	31	35	
1	1	1	0	0	510	516	512	566	31	35	
2	1	1	0	0	513	516	489	564	31	35	
3	1	1	0	0	509	507	468	564	31	35	
4	1	1	0	0	510	507	496	565	31	35	
5	1	1	0	0	505	512	516	564	31	35	
6	1	1	0	0	506	514	513	564	31	36	
7	1	1	0	0	509	513	515	563	31	36	
8	1	1	0	0	505	512	518	564	31	36	
9	1	1	0	0	505	511	501	564	31	36	
10	1	1	0	0	511	515	515	564	31	36	
11	1	1	0	0	509	511	513	563	31	36	
12	1	1	0	0	512	514	516	563	31	36	
13	1	1	0	0	508	512	511	563	31	36	
14	1	1	0	0	506	510	515	563	31	36	
15	1	1	0	0	507	513	515	563	31	36	
0	1	1	0	0	508	513	513	563	31	36	
1	1	1	0	0	510	515	515	562	32	36	
2	1	1	0	0	508	516	519	562	32	36	
3	1	1	0	0	510	516	527	561	32	36	
4	1	1	0	0	508	515	530	561	32	36	
5	1	1	0	0	506	507	527	562	32	36	
6	1	1	0	0	506	511	518	561	32	36	
7	1	1	0	0	510	509	497	561	32	36	
8	1	1	0	0	515	519	499	562	32	36	
9	1	1	0	0	513	517	486	562	32	36	
10	1	1	0	0	512	518	515	561	32	36	
11	1	1	0	0	508	519	515	561	32	36	
12	1	1	0	0	509	513	511	561	32	36	
13	1	1	0	0	513	519	520	561	32	36	
14	1	1	0	0	512	514	512	560	32	36	
15	1	1	0	0	511	509	510	560	32	36	
0	1	1	0	0	510	512	515	560	32	36	
1	1	1	0	0	508	512	518	560	32	36	
2	1	1	0	0	508	508	520	560	32	36	
3	1	1	0	0	501	511	520	560	32	36	
4	1	1	0	0	516	524	516	560	32	36	
5	1	1	0	0	518	515	512	560	32	36	
6	1	1	0	0	510	503	516	560	32	36	
7	1	1	0	0	507	512	516	559	32	36	
8	1	1	0	0	505	512	515	559	32	36	
9	1	1	0	0	501	509	515	558	32	36	
10	1	1	0	0	505	513	516	557	32	36	
11	1	1	0	0	505	515	515	556	32	36	
12	1	1	0	0	510	514	514	557	32	36	
13	1	1	0	0	507	513	515	556	32	36	
14	1	1	0	0	509	514	513	556	32	36	
15	1	1	0	0	512	518	515	555	32	36	
0	1	1	0	0	507	513	515	553	32	36	
1	1	1	0	0	504	513	511	553	32	36	
2	1	1	0	0	510	514	510	552	32	36	
3	1	1	0	0	511	515	511	551	31	36	
4	1	1	0	0	512	512	513	550	31	36	
5	1	1	0	0	514	513	513	550	31	36	
6	1	1	0	0	511	512	513	550	31	36	
7	1	1	0	0	512	519	512	548	31	36	
8	1	1	0	0	510	515	516	547	31	36	
9	1	1	0	0	505	515	519	547	31	36	
10	1	1	0	0	509	517	518	546	31	36	
11	1	1	0	0	511	514	515	546	31	36	
12	1	1	0	0	511	516	516	546	31	36	
13	1	1	0	0	512	511	513	546	32	36	
14	1	1	0	0	518	513	515	545	32	36	
15	1	1	0	0	516	512	513	544	32	36	
0	1	1	0	0	506	513	515	543	32	36	
1	1	1	0	0	508	519	513	543	32	36	
2	1	1	0	0	515	518	516	542	32	36	
3	1	1	0	0	515	524	519	542	32	36	
4	1	1	0	0	514	524	520	542	32	36	
5	1	1	0	0	519	522	519	542	32	36	
6	1	1	0	0	512	523	523	542	32	36	
7	1	1	0	0	503	520	526	542	32	36	
8	1	1	0	0	501	520	527	541	32	36	
9	1	1	0	0	496	500	526	540	32	36	
10	1	1	0	0	504	480	526	541	32	36	
11	1	1	0	0	505	483	522	540	32	36	
12	1	1	0	0	505	484	525	539	32	36	
13	1	1	0	0	509	495	516	538	32	36	
14	1	1	0	0	501	499	519	537	32	36	
15	1	1	0	0	521	499	521	537	32	36	
0	1	1	0	0	526	514	520	537	32	36	
1	1	1	0	0	501	517	516	537	32	36	
2	1	1	0	0	500	512	512	536	32	36	
3	1	1	0	0	509	518	519	537	32	36	
4	1	1	0	0	518	520	522	537	32	36	
5	1	1	0	0	521	525	520	537	32	36	
6	1	1	0	0	518	523	517	537	32	36	
7	1	1	0	0	510	519	515	537	32	36	
8	1	1	0	0	512	516	513	537	33	36	
9	1	1	0	0	515	517	514	537	33	36	
10	1	1	0	0	519	517	511	538	33	36	
11	1	1	0	0	518	521	510	538	33	36	
12	1	1	0	0	524	533	511	539	33	36	
13	1	1	0	0	523	543	506	540	33	36	
14	1	1	0	0	523	549	503	540	33	36	
15	1	1	0	0	518	538	507	542	33	36	
0	1	1	0	0	519	540	505	542	33	36	
1	1	1	0	0	510	539	505	542	33	36	
2	1	1	0	0	499	539	508	543	34	36	
3	1	1	0	0	497	527	508	543	34	36	
4	1	1	0	0	497	484	502	544	34	36	
5	1	1	0	0	498	425	504	545	34	36	
6	1	1	0	0	489	412	501	546	34	36	
7	1	1	0	0	487	470	498	547	34	36	
8	1	1	0	0	491	496	498	547	34	37	
9	1	1	0	0	498	473	504	549	34	37	
10	1	1	0	0	499	493	503	550	34	37	
11	1	1	0	0	510	520	492	551	34	37	
12	1	1	0	0	512	523	478	551	34	37	
13	1	1	0	0	515	524	488	552	34	37	
14	1	1	0	0	516	520	497	553	34	37	
15	1	1	0	0	518	515	501	553	34	37	
0	1	1	0	0	518	509	505	552	34	37	
1	1	1	0	0	523	513	508	553	34	37	
2	1	1	0	0	523	517	506	554	34	37	
3	1	1	0	0	519	524	510	554	34	37	
4	1	1	0	0	515	528	508	555	34	37	
5	1	1	0	0	513	531	509	555	34	37	
6	1	1	0	0	518	527	508	556	34	37	
7	1	1	0	0	523	523	511	556	34	37	
8	1	1	0	0	526	523	512	556	34	37	
9	1	1	0	0	522	527	510	556	34	37	
10	1	1	0	0	514	527	512	556	34	37	
11	1	1	0	0	507	526	512	556	34	37	
12	1	1	0	0	491	534	510	556	34	37	
13	1	1	0	0	491	534	511	557	34	37	
14	1	1	0	0	496	508	507	558	33	37	
15	1	1	0	0	512	502	509	558	33	37	
0	1	1	0	0	507	508	504	559	33	36	
1	1	1	0	0	506	496	504	560	33	36	
2	1	1	0	0	499	490	506	559	33	36	
3	1	1	0	0	503	500	504	559	33	36	
4	1	1	0	0	508	507	502	559	33	36	
5	1	1	0	0	509	507	502	558	33	36	
6	1	1	0	0	514	507	503	559	33	36	
7	1	1	0	0	517	509	505	557	32	36	
8	1	1	0	0	517	507	507	557	32	36	
9	1	1	0	0	515	503	506	557	32	36	
10	1	1	0	0	518	507	501	557	32	36	
11	1	1	0	0	521	521	502	557	32	36	
12	1	1	0	0	515	528	507	558	32	36	
13	1	1	0	0	515	530	510	557	32	35	
14	1	1	0	0	513	531	508	558	32	35	
15	1	1	0	0	515	526	509	557	32	35	
0	1	1	0	0	515	533	509	557	32	35	
1	1	1	0	0	513	531	508	557	32	35	
2	1	1	0	0	512	523	509	557	31	35	
3	1	1	0	0	513	513	512	558	31	35	
4	1	1	0	0	515	515	511	558	31	35	
5	1	1	0	0	521	526	511	560	31	35	
6	1	1	0	0	514	513	509	561	31	35	
7	1	1	0	0	511	503	508	562	31	35	
8	1	1	0	0	507	472	509	562	31	35	
9	1	1	0	0	505	468	507	564	31	35	
10	1	1	0	0	506	499	503	565	31	35	
11	1	1	0	0	503	532	498	564	31	35	
12	1	1	0	0	499	521	498	565	31	35	
13	1	1	0	0	490	493	499	566	31	35	
14	1	1	0	0	498	512	502	567	31	35	
15	1	1	0	0	505	512	499	568	31	35	
0	1	1	0	0	511	507	508	569	31	35	
1	1	1	0	0	515	515	513	569	31	35	
2	1	1	0	0	513	513	508	571	31	35	
3	1	1	0	0	508	508	510	570	32	35	
4	1	1	0	0	511	506	504	572	32	35	
5	1	1	0	0	512	507	499	572	32	35	
6	1	1	0	0	511	512	500	572	32	35	
7	1	1	0	0	512	519	503	572	32	35	
8	1	1	0	0	510	522	502	572	32	35	
9	1	1	0	0	510	515	505	571	32	36	
10	1	1	0	0	510	513	507	572	32	36	
11	1	1	0	0	513	517	511	571	32	36	
12	1	1	0	0	504	519	511	572	32	36	
13	1	1	0	0	508	523	510	572	32	36	
14	1	1	0	0	510	521	510	573	32	36	
15	1	1	0	0	511	520	509	572	32	36	
0	1	1	0	0	508	518	508	572	32	36	
1	1	1	0	0	502	498	510	570	32	37	
2	1	1	0	0	498	492	510	569	32	37	
3	1	1	0	0	504	509	507	568	32	37	
4	1	1	0	0	507	520	505	566	32	37	
5	1	1	0	0	503	521	503	565	32	38	
6	1	1	0	0	505	534	506	564	32	38	
7	1	1	0	0	504	533	508	562	32	38	
8	1	1	0	0	508	519	509	561	32	38	
9	1	1	0	0	509	510	511	560	32	38	
10	1	1	0	0	516	515	510	559	32	39	
11	1	1	0	0	515	515	511	558	32	39	
12	1	1	0	0	509	509	507	557	32	39	
13	1	1	0	0	504	504	508	556	32	39	
14	1	1	0	0	514	512	509	554	32	39	
15	1	1	0	0	516	506	508	553	32	39	
0	1	1	0	0	507	468	508	551	32	40	
1	1	1	0	0	508	493	506	551	31	40	
2	1	1	0	0	499	514	506	551	31	40	
3	1	1	0	0	489	510	507	550	31	40	
4	1	1	0	0	480	524	507	550	31	40	
5	1	1	0	0	484	529	505	549	31	40	
6	1	1	0	0	497	527	509	548	31	40	
7	1	1	0	0	503	531	508	548	30	40	
8	1	1	0	0	503	509	510	547	30	40	
9	1	1	0	0	504	505	509	548	30	40	
10	1	1	0	0	507	512	508	547	30	40	
11	1	1	0	0	508	510	512	547	30	40	
12	1	1	0	0	511	515	513	547	30	40	
13	1	1	0	0	511	511	516	547	29	40	
14	1	1	0	0	513	512	509	547	29	40	
15	1	1	0	0	518	517	503	548	29	40	
0	1	1	0	0	512	491	503	548	29	40	
1	1	1	0	0	515	488	509	550	29	40	
2	1	1	0	0	517	517	511	551	29	40	
3	1	1	0	0	518	526	512	552	29	40	
4	1	1	0	0	519	513	513	553	29	40	
5	1	1	0	0	515	493	518	555	29	40	
6	1	1	0	0	515	500	514	556	29	40	
7	1	1	0	0	515	505	513	558	28	40	
8	1	1	0	0	518	512	509	559	28	40	
9	1	1	0	0	519	512	504	560	28	40	
10	1	1	0	0	519	519	500	562	28	39	
11	1	1	0	0	519	521	503	564	28	39	
12	1	1	0	0	519	517	498	566	28	39	
13	1	1	0	0	521	521	506	568	28	39	
14	1	1	0	0	524	527	511	570	28	39	
15	1	1	0	0	521	524	505	572	28	39	
0	1	1	0	0	520	524	503	574	28	39	
1	1	1	0	0	519	523	504	575	28	39	
2	1	1	0	0	512	522	505	576	28	39	
3	1	1	0	0	511	525	512	578	28	39	
4	1	1	0	0	512	524	520	579	28	39	
5	1	1	0	0	511	524	521	581	28	38	
6	1	1	0	0	480	524	521	582	27	38	
7	1	1	0	0	512	507	510	584	27	38	
8	1	1	0	0	509	488	486	585	27	38	
9	1	1	0	0	505	499	482	586	27	38	
10	1	1	0	0	506	502	494	588	27	38	
11	1	1	0	0	509	507	497	589	27	38	
12	1	1	0	0	510	513	501	590	27	38	
13	1	1	0	0	508	513	506	591	27	37	
14	1	1	0	0	504	516	516	591	27	37	
15	1	1	0	0	500	522	546	591	26	37	
0	1	1	0	0	502	522	549	592	26	37	
1	1	1	0	0	503	514	515	592	26	37	
2	1	1	0	0	504	512	495	593	26	37	
3	1	1	0	0	504	515	492	594	26	37	
4	1	1	0	0	503	518	489	595	26	37	
5	1	1	0	0	500	521	510	596	26	37	
6	1	1	0	0	516	514	507	596	25	37	
7	1	1	0	0	519	509	491	596	25	37	
8	1	1	0	0	509	515	524	596	25	37	
9	1	1	0	0	494	519	532	596	25	37	
10	1	1	0	0	505	519	525	595	25	37	
11	1	1	0	0	505	526	538	596	24	37	
12	1	1	0	0	499	518	513	595	24	37	
13	1	1	0	0	500	515	487	596	24	37	
14	1	1	0	0	503	520	476	597	24	37	
15	1	1	0	0	506	520	456	597	24	37	
0	1	1	0	0	508	514	430	597	23	37	
1	1	1	0	0	504	512	428	597	23	37	
2	1	1	0	0	502	513	437	598	23	37	
3	1	1	0	0	506	513	463	599	23	37	
4	1	1	0	0	508	504	504	599	23	37	
5	1	1	0	0	495	502	525	599	23	37	
6	1	1	0	0	505	513	537	600	22	37	
7	1	1	0	0	503	518	534	601	22	36	
8	1	1	0	0	495	515	532	601	22	36	
9	1	1	0	0	500	507	535	601	22	36	
10	1	1	0	0	510	499	563	602	21	36	
11	1	1	0	0	513	510	588	603	21	36	
12	1	1	0	0	515	511	600	604	21	36	
13	1	1	0	0	515	509	604	605	21	36	
14	1	1	0	0	517	508	592	605	21	36	
15	1	1	0	0	517	522	622	606	21	36	
0	1	1	0	0	519	532	619	606	20	36	
1	1	1	0	0	510	522	552	606	20	36	
2	1	1	0	0	515	514	431	606	20	37	
3	1	1	0	0	514	504	325	606	20	37	
4	1	1	0	0	508	488	283	605	20	37	
5	1	1	0	0	517	505	315	606	20	37	
6	1	1	0	0	529	522	332	605	20	37	
7	1	1	0	0	526	519	384	604	20	37	
8	1	1	0	0	507	506	468	604	20	37	
9	1	1	0	0	496	510	566	603	20	37	
10	1	1	0	0	495	524	591	601	20	37	
11	1	1	0	0	495	532	574	600	20	37	
12	1	1	0	0	503	503	558	598	20	38	
13	1	1	0	0	494	485	568	595	20	38	
14	1	1	0	0	499	490	604	594	20	38	
15	1	1	0	0	531	526	573	591	20	38	
0	1	1	0	0	516	513	552	590	20	38	
1	1	1	0	0	498	493	576	588	20	39	
2	1	1	0	0	512	509	512	583	21	39	
3	1	1	0	0	514	490	433	581	21	39	
4	1	1	0	0	509	500	388	577	21	39	
5	1	1	0	0	508	524	372	574	21	39	
6	1	1	0	0	523	522	391	571	21	40	
7	1	1	0	0	515	516	459	566	21	40	
8	1	1	0	0	502	521	531	562	21	40	
9	1	1	0	0	515	543	582	558	22	40	
10	1	1	0	0	519	544	568	554	22	41	
11	1	1	0	0	512	508	547	551	22	41	
12	1	1	0	0	511	515	543	548	22	41	
13	1	1	0	0	505	509	538	545	22	41	
14	1	1	0	0	496	508	533	542	22	42	
15	1	1	0	0	491	510	525	539	22	42	
0	1	1	0	0	497	511	518	538	22	42	
1	1	1	0	0	498	505	507	536	22	42	
2	1	1	0	0	515	514	511	534	22	42	
3	1	1	0	0	512	516	506	531	22	42	
4	1	1	0	0	500	512	508	529	22	43	
5	1	1	0	0	505	509	509	527	23	43	
6	1	1	0	0	519	512	506	524	23	43	
7	1	1	0	0	520	508	508	523	23	43	
8	1	1	0	0	529	508	507	521	23	43	
9	1	1	0	0	526	506	537	520	23	43	
10	1	1	0	0	515	506	558	519	23	43	
11	1	1	0	0	528	512	525	518	24	44	
12	1	1	0	0	532	508	495	517	24	44	
13	1	1	0	0	531	514	524	515	24	44	
14	1	1	0	0	511	517	502	515	24	44	
15	1	1	0	0	505	510	468	514	25	44	
0	1	1	0	0	508	514	411	513	25	45	
1	1	1	0	0	518	507	377	512	25	45	
2	1	1	0	0	531	502	413	511	26	45	
3	1	1	0	0	521	506	446	512	26	45	
4	1	1	0	0	513	501	481	512	26	46	
5	1	1	0	0	517	513	526	512	27	46	
6	1	1	0	0	510	515	546	512	27	46	
7	1	1	0	0	524	523	551	513	28	46	
8	1	1	0	0	518	521	547	514	28	46	
9	1	1	0	0	522	516	535	514	28	47	
10	1	1	0	0	524	514	521	515	29	47	
11	1	1	0	0	534	516	519	516	29	47	
12	1	1	0	0	531	515	522	516	30	47	
13	1	1	0	0	524	518	521	517	30	47	
14	1	1	0	0	518	519	517	519	30	47	
15	1	1	0	0	512	507	516	519	31	48	
0	1	1	0	0	506	498	508	521	31	48	
1	1	1	0	0	509	514	517	522	31	48	
2	1	1	0	0	504	518	548	523	32	48	
3	1	1	0	0	499	518	544	525	32	48	
4	1	1	0	0	497	514	539	526	32	48	
5	1	1	0	0	503	514	579	527	33	48	
6	1	1	0	0	498	519	556	529	33	48	
7	1	1	0	0	496	509	504	531	33	47	
8	1	1	0	0	501	503	452	532	33	47	
9	1	1	0	0	504	515	456	535	34	47	
10	1	1	0	0	504	517	420	537	34	47	
11	1	1	0	0	501	505	412	540	34	46	
12	1	1	0	0	507	503	432	542	34	46	
13	1	1	0	0	509	523	487	545	34	46	
14	1	1	0	0	478	516	510	547	35	45	
15	1	1	0	0	467	482	519	551	35	45	
0	1	1	0	0	496	506	531	554	35	45	
1	1	1	0	0	512	515	542	556	35	44	
2	1	1	0	0	513	509	548	558	36	44	
3	1	1	0	0	543	536	551	560	36	44	
4	1	1	0	0	524	524	543	561	36	43	
5	1	1	0	0	514	503	542	564	36	43	
6	1	1	0	0	510	499	540	567	36	43	
7	1	1	0	0	512	502	536	569	36	42	
8	1	1	0	0	512	517	546	571	36	42	
9	1	1	0	0	516	517	556	573	36	42	
10	1	1	0	0	521	517	553	575	36	42	
11	1	1	0	0	520	515	532	576	36	41	
12	1	1	0	0	529	519	540	579	36	41	
13	1	1	0	0	526	517	531	579	36	41	
14	1	1	0	0	527	530	531	581	36	41	
15	1	1	0	0	502	512	505	582	36	40	
0	1	1	0	0	509	492	494	582	36	40	
1	1	1	0	0	526	500	505	583	36	40	
2	1	1	0	0	539	512	494	584	36	39	
3	1	1	0	0	531	511	493	585	36	39	
4	1	1	0	0	520	515	520	587	35	39	
5	1	1	0	0	504	511	550	588	35	38	
6	1	1	0	0	504	495	492	589	35	38	
7	1	1	0	0	512	509	537	590	35	37	
8	1	1	0	0	514	531	556	590	35	37	
9	1	1	0	0	510	527	519	591	35	37	
10	1	1	0	0	508	514	507	591	34	36	
11	1	1	0	0	513	522	493	592	34	36	
12	1	1	0	0	521	537	480	592	34	36	
13	1	1	0	0	528	525	419	594	33	35	
14	1	1	0	0	511	497	382	595	33	35	
15	1	1	0	0	509	500	428	595	33	35	
0	1	1	0	0	513	493	472	597	32	34	
1	1	1	0	0	503	506	525	597	32	34	
2	1	1	0	0	489	510	545	597	32	34	
3	1	1	0	0	487	521	572	598	32	34	
4	1	1	0	0	486	515	632	598	31	34	
5	1	1	0	0	491	519	673	600	31	33	
6	1	1	0	0	494	517	640	600	31	33	
7	1	1	0	0	509	519	586	599	30	33	
8	1	1	0	0	518	518	509	599	30	33	
9	1	1	0	0	523	504	397	599	29	33	
10	1	1	0	0	520	486	290	599	29	33	
11	1	1	0	0	520	494	345	599	29	33	
12	1	1	0	0	509	515	433	599	28	32	
13	1	1	0	0	485	518	485	600	28	32	
14	1	1	0	0	482	508	500	599	28	32	
15	1	1	0	0	495	517	518	599	28	32	
0	1	1	0	0	493	519	527	599	27	32	
1	1	1	0	0	499	521	522	598	27	32	
2	1	1	0	0	500	527	525	597	26	32	
3	1	1	0	0	497	519	522	596	26	32	
4	1	1	0	0	494	510	522	596	26	32	
5	1	1	0	0	491	514	527	595	26	32	
6	1	1	0	0	498	518	527	595	25	32	
7	1	1	0	0	499	516	528	593	25	31	
8	1	1	0	0	503	512	522	592	25	31	
9	1	1	0	0	507	515	523	591	25	31	
10	1	1	0	0	502	515	518	589	24	31	
11	1	1	0	0	503	515	518	588	24	31	
12	1	1	0	0	507	513	518	586	24	32	
13	1	1	0	0	512	515	510	584	24	32	
14	1	1	0	0	521	520	511	582	24	32	
15	1	1	0	0	512	513	514	579	24	32	
0	1	1	0	0	511	511	511	578	24	32	
1	1	1	0	0	508	513	508	575	24	32	
2	1	1	0	0	507	516	507	574	24	32	
3	1	1	0	0	502	511	510	572	24	32	
4	1	1	0	0	521	535	513	571	24	33	
5	1	1	0	0	521	536	504	568	25	33	
6	1	1	0	0	497	503	504	566	25	33	
7	1	1	0	0	510	507	508	563	25	33	
8	1	1	0	0	520	520	509	561	25	33	
9	1	1	0	0	511	509	508	559	25	34	
10	1	1	0	0	507	510	511	558	26	34	
11	1	1	0	0	504	495	512	556	26	34	
12	1	1	0	0	512	494	508	554	26	34	
13	1	1	0	0	530	509	504	553	27	34	
14	1	1	0	0	518	504	511	552	27	34	
15	1	1	0	0	523	513	512	551	28	34	
0	1	1	0	0	506	505	513	551	28	34	
1	1	1	0	0	517	519	511	550	29	35	
2	1	1	0	0	519	515	509	550	29	35	
3	1	1	0	0	515	513	504	550	29	35	
4	1	1	0	0	520	508	507	551	30	35	
5	1	1	0	0	522	511	510	551	30	35	
6	1	1	0	0	525	513	509	553	30	35	
7	1	1	0	0	522	519	511	555	31	35	
8	1	1	0	0	518	518	511	556	31	35	
9	1	1	0	0	516	519	510	558	32	35	
10	1	1	0	0	517	524	514	559	32	35	
11	1	1	0	0	518	524	514	560	33	35	
12	1	1	0	0	520	527	513	562	33	35	
13	1	1	0	0	519	529	514	563	34	35	
14	1	1	0	0	518	527	517	564	34	35	
15	1	1	0	0	522	520	517	565	34	35	
0	1	1	0	0	520	511	519	566	35	35	
1	1	1	0	0	520	491	517	568	35	35	
2	1	1	0	0	518	485	517	569	35	35	
3	1	1	0	0	515	494	516	571	36	35	
4	1	1	0	0	503	497	514	572	36	35	
5	1	1	0	0	498	485	515	572	36	36	
6	1	1	0	0	509	488	514	574	36	36	
7	1	1	0	0	511	497	511	575	37	36	
8	1	1	0	0	515	507	508	575	37	36	
9	1	1	0	0	508	513	512	576	37	36	
10	1	1	0	0	504	518	512	576	37	36	
11	1	1	0	0	504	519	506	577	38	36	
12	1	1	0	0	515	519	512	577	38	36	
13	1	1	0	0	525	522	513	578	38	36	
14	1	1	0	0	523	526	515	579	38	36	
15	1	1	0	0	518	530	513	579	38	36	
0	1	1	0	0	518	532	514	580	38	36	
1	1	1	0	0	515	532	514	580	38	36	
2	1	1	0	0	519	537	515	579	38	36	
3	1	1	0	0	515	542	512	580	39	37	
4	1	1	0	0	523	543	516	580	39	37	
5	1	1	0	0	526	549	520	580	39	37	
6	1	1	0	0	524	528	519	580	39	37	
7	1	1	0	0	512	473	520	580	39	37	
8	1	1	0	0	507	486	516	580	38	37	
9	1	1	0	0	506	508	511	579	38	37	
10	1	1	0	0	510	492	515	579	38	37	
11	1	1	0	0	505	460	515	579	38	37	
12	1	1	0	0	494	429	515	580	38	37	
13	1	1	0	0	490	436	505	580	38	37	
14	1	1	0	0	485	474	500	579	38	37	
15	1	1	0	0	494	509	497	579	38	37	
0	1	1	0	0	504	531	504	578	38	38	
1	1	1	0	0	516	532	514	577	38	38	
2	1	1	0	0	517	528	508	576	37	38	
3	1	1	0	0	509	529	506	577	37	38	
4	1	1	0	0	499	524	510	577	37	38	
5	1	1	0	0	495	526	515	577	37	38	
6	1	1	0	0	502	527	515	576	37	38	
7	1	1	0	0	515	531	509	577	37	38	
8	1	1	0	0	523	543	509	576	36	38	
9	1	1	0	0	522	565	512	576	36	38	
10	1	1	0	0	518	582	512	575	36	38	
11	1	1	0	0	516	577	515	575	36	38	
12	1	1	0	0	512	552	516	575	36	38	
13	1	1	0	0	510	525	518	574	35	38	
14	1	1	0	0	506	508	519	575	35	38	
15	1	1	0	0	503	479	518	575	35	38	
0	1	1	0	0	498	452	517	575	35	38	
1	1	1	0	0	487	388	516	575	35	38	
2	1	1	0	0	483	422	508	576	34	38	
3	1	1	0	0	484	463	504	576	34	38	
4	1	1	0	0	487	505	501	577	34	38	
5	1	1	0	0	494	531	497	578	34	38	
6	1	1	0	0	501	536	501	579	33	38	
7	1	1	0	0	510	519	507	579	33	38	
8	1	1	0	0	511	491	509	580	33	38	
9	1	1	0	0	512	500	511	581	33	38	
10	1	1	0	0	512	516	509	581	32	38	
11	1	1	0	0	516	516	510	583	32	38	
12	1	1	0	0	512	514	512	583	32	37	
13	1	1	0	0	514	527	512	584	32	37	
14	1	1	0	0	520	542	516	585	32	37	
15	1	1	0	0	521	534	513	585	32	37	
0	1	1	0	0	514	532	515	585	31	37	
1	1	1	0	0	508	519	507	585	31	37	
2	1	1	0	0	502	514	517	584	31	37	
3	1	1	0	0	519	547	516	584	31	37	
4	1	1	0	0	519	537	507	584	31	37	
5	1	1	0	0	512	527	509	583	31	37	
6	1	1	0	0	516	539	512	583	30	37	
7	1	1	0	0	511	543	510	584	30	37	
8	1	1	0	0	508	540	512	583	30	37	
9	1	1	0	0	513	529	515	583	30	37	
10	1	1	0	0	511	526	513	582	30	37	
11	1	1	0	0	506	520	513	582	30	36	
12	1	1	0	0	511	523	515	583	29	36	
13	1	1	0	0	510	509	513	582	29	36	
14	1	1	0	0	510	497	512	581	29	36	
15	1	1	0	0	500	487	510	580	29	36	
0	1	1	0	0	501	456	512	580	29	36	
1	1	1	0	0	501	439	513	580	29	36	
2	1	1	0	0	496	450	509	579	29	36	
3	1	1	0	0	503	531	503	578	29	36	
4	1	1	0	0	502	578	499	577	29	36	
5	1	1	0	0	499	585	502	575	29	36	
6	1	1	0	0	508	581	504	574	29	36	
7	1	1	0	0	505	550	505	571	29	36	
8	1	1	0	0	505	494	507	569	29	36	
9	1	1	0	0	505	488	508	566	29	37	
10	1	1	0	0	503	484	505	564	29	37	
11	1	1	0	0	511	480	507	562	29	37	
12	1	1	0	0	509	484	507	560	29	37	
13	1	1	0	0	504	499	505	558	29	37	
14	1	1	0	0	498	487	504	556	29	37	
15	1	1	0	0	514	515	504	555	29	37	
0	1	1	0	0	512	492	503	553	29	37	
1	1	1	0	0	498	463	516	551	29	37	
2	1	1	0	0	511	510	511	550	29	37	
3	1	1	0	0	516	532	504	548	29	37	
4	1	1	0	0	513	551	500	547	29	37	
5	1	1	0	0	502	512	494	546	29	37	
6	1	1	0	0	501	500	503	545	29	37	
7	1	1	0	0	505	525	507	545	29	37	
8	1	1	0	0	514	542	507	544	29	37	
9	1	1	0	0	511	529	509	544	29	37	
10	1	1	0	0	518	550	507	545	29	37	
11	1	1	0	0	513	564	501	545	29	37	
12	1	1	0	0	515	573	506	545	29	37	
13	1	1	0	0	515	568	504	546	29	37	
14	1	1	0	0	514	536	507	547	28	37	
15	1	1	0	0	523	526	507	548	28	37	
0	1	1	0	0	510	448	508	549	28	37	
1	1	1	0	0	497	369	514	550	28	37	
2	1	1	0	0	498	446	508	551	28	37	
3	1	1	0	0	505	507	495	554	28	37	
4	1	1	0	0	507	511	499	557	28	37	
5	1	1	0	0	497	511	501	558	28	37	
6	1	1	0	0	493	539	504	560	27	37	
7	1	1	0	0	508	545	505	561	27	37	
8	1	1	0	0	523	511	508	563	27	37	
9	1	1	0	0	516	460	505	566	27	37	
10	1	1	0	0	517	487	508	566	27	37	
11	1	1	0	0	531	528	504	568	27	37	
12	1	1	0	0	532	541	507	570	27	37	
13	1	1	0	0	525	532	508	572	27	37	
14	1	1	0	0	527	519	512	575	27	37	
15	1	1	0	0	512	513	511	576	27	37	
0	1	1	0	0	499	506	513	579	27	37	
1	1	1	0	0	519	510	510	580	27	37	
2	1	1	0	0	520	507	510	583	27	37	
3	1	1	0	0	527	512	511	584	27	37	
4	1	1	0	0	531	519	510	586	28	37	
5	1	1	0	0	524	520	508	588	28	37	
6	1	1	0	0	523	521	511	589	28	37	
7	1	1	0	0	515	520	512	589	28	38	
8	1	1	0	0	510	518	508	591	28	38	
9	1	1	0	0	508	522	508	590	28	38	
10	1	1	0	0	507	519	507	591	28	38	
11	1	1	0	0	508	517	509	591	28	38	
12	1	1	0	0	504	519	527	592	29	38	
13	1	1	0	0	511	518	531	593	29	38	
14	1	1	0	0	515	512	529	593	29	38	
15	1	1	0	0	513	518	526	593	29	38	
0	1	1	0	0	510	516	509	593	29	38	
1	1	1	0	0	500	510	509	595	29	38	
2	1	1	0	0	484	505	508	595	29	38	
3	1	1	0	0	487	494	491	595	29	38	
4	1	1	0	0	495	502	481	597	29	38	
5	1	1	0	0	499	503	473	598	29	38	
6	1	1	0	0	497	504	491	598	29	38	
7	1	1	0	0	508	507	507	600	29	38	
8	1	1	0	0	507	513	516	601	29	38	
9	1	1	0	0	502	517	533	603	29	37	
10	1	1	0	0	501	514	552	604	29	37	
11	1	1	0	0	501	514	573	605	29	37	
12	1	1	0	0	512	523	628	608	29	37	
13	1	1	0	0	502	516	615	608	29	37	
14	1	1	0	0	508	513	555	609	29	37	
15	1	1	0	0	523	533	495	609	29	37	
0	1	1	0	0	515	534	448	608	29	37	
1	1	1	0	0	512	517	378	608	28	37	
2	1	1	0	0	516	512	338	606	28	36	
3	1	1	0	0	505	498	348	606	28	36	
4	1	1	0	0	501	493	387	604	28	36	
5	1	1	0	0	498	499	484	602	28	36	
6	1	1	0	0	476	493	538	602	28	36	
7	1	1	0	0	477	498	606	600	28	35	
8	1	1	0	0	486	502	614	599	27	35	
9	1	1	0	0	486	512	623	597	27	35	
10	1	1	0	0	489	515	680	596	27	35	
11	1	1	0	0	496	514	626	595	27	35	
12	1	1	0	0	511	513	550	595	27	35	
13	1	1	0	0	515	518	494	595	27	35	
14	1	1	0	0	517	526	486	595	26	35	
15	1	1	0	0	516	520	428	595	26	35	
0	1	1	0	0	523	521	364	595	26	35	
1	1	1	0	0	514	505	306	594	26	35	
2	1	1	0	0	505	505	347	594	26	35	
3	1	1	0	0	509	527	431	593	25	35	
4	1	1	0	0	516	529	486	591	25	35	
5	1	1	0	0	501	496	506	591	25	35	
6	1	1	0	0	499	497	525	590	25	35	
7	1	1	0	0	502	503	549	589	25	35	
8	1	1	0	0	515	519	558	588	25	35	
9	1	1	0	0	519	510	564	587	25	35	
10	1	1	0	0	524	511	568	585	24	35	
11	1	1	0	0	532	518	567	584	24	35	
12	1	1	0	0	547	530	561	583	24	35	
13	1	1	0	0	532	527	526	582	24	35	
14	1	1	0	0	516	514	529	580	24	35	
15	1	1	0	0	514	523	533	579	24	35	
0	1	1	0	0	514	532	553	577	24	35	
1	1	1	0	0	507	514	611	575	24	35	
2	1	1	0	0	512	515	685	572	24	35	
3	1	1	0	0	517	517	662	571	23	35	
4	1	1	0	0	515	510	556	568	23	35	
5	1	1	0	0	515	504	436	566	23	35	
6	1	1	0	0	524	512	347	563	23	35	
7	1	1	0	0	524	505	297	560	23	35	
8	1	1	0	0	520	504	286	558	23	35	
9	1	1	0	0	532	527	301	556	23	35	
10	1	1	0	0	526	526	397	553	23	35	
11	1	1	0	0	518	531	466	551	23	36	
12	1	1	0	0	487	504	499	548	23	36	
13	1	1	0	0	481	496	541	546	23	36	
14	1	1	0	0	484	511	584	546	22	36	
15	1	1	0	0	482	512	583	545	22	36	
0	1	1	0	0	496	513	571	544	22	36	
1	1	1	0	0	495	512	566	543	22	36	
2	1	1	0	0	494	504	553	543	21	36	
3	1	1	0	0	493	501	551	544	21	37	
4	1	1	0	0	495	496	545	544	21	37	
5	1	1	0	0	508	497	542	545	21	37	
6	1	1	0	0	529	510	563	545	21	37	
7	1	1	0	0	516	511	635	545	20	37	
8	1	1	0	0	515	521	662	545	20	37	
9	1	1	0	0	510	513	600	544	20	38	
10	1	1	0	0	496	508	572	544	20	38	
11	1	1	0	0	494	508	569	545	20	38	
12	1	1	0	0	515	529	595	545	20	38	
13	1	1	0	0	564	556	504	546	20	38	
14	1	1	0	0	558	516	408	547	19	38	
15	1	1	0	0	541	489	425	548	19	38	
0	1	1	0	0	521	503	416	547	19	38	
1	1	1	0	0	515	511	364	548	20	39	
2	1	1	0	0	513	505	291	548	20	39	
3	1	1	0	0	533	550	297	547	20	39	
4	1	1	0	0	540	570	311	546	20	39	
5	1	1	0	0	527	551	325	545	20	39	
6	1	1	0	0	481	501	350	545	20	40	
7	1	1	0	0	469	494	472	545	20	40	
8	1	1	0	0	476	507	540	544	20	40	
9	1	1	0	0	481	506	553	543	21	40	
10	1	1	0	0	473	484	567	544	21	41	
11	1	1	0	0	497	503	589	543	21	41	
12	1	1	0	0	510	510	595	543	21	41	
13	1	1	0	0	512	515	579	543	22	42	
14	1	1	0	0	503	508	571	543	22	42	
15	1	1	0	0	500	510	572	542	22	42	
0	1	1	0	0	512	523	572	541	22	43	
1	1	1	0	0	527	525	565	541	23	43	
2	1	1	0	0	512	489	552	540	23	43	
3	1	1	0	0	522	496	539	539	23	43	
4	1	1	0	0	521	517	536	539	24	43	
5	1	1	0	0	510	511	528	540	24	43	
6	1	1	0	0	510	505	522	541	24	43	
7	1	1	0	0	519	503	512	542	25	44	
8	1	1	0	0	531	508	510	543	25	44	
9	1	1	0	0	526	521	509	543	26	44	
10	1	1	0	0	529	516	508	543	26	44	
11	1	1	0	0	540	514	508	545	27	44	
12	1	1	0	0	535	513	507	544	27	44	
13	1	1	0	0	517	503	501	544	28	44	
14	1	1	0	0	508	499	498	544	28	44	
15	1	1	0	0	501	505	495	543	29	44	
0	1	1	0	0	518	516	495	543	29	44	
1	1	1	0	0	530	519	504	542	30	44	
2	1	1	0	0	529	521	504	541	30	44	
3	1	1	0	0	520	520	505	541	31	44	
4	1	1	0	0	525	524	524	539	31	44	
5	1	1	0	0	521	515	534	540	32	44	
6	1	1	0	0	508	530	542	539	32	44	
7	1	1	0	0	520	543	524	537	33	43	
8	1	1	0	0	508	500	503	537	33	43	
9	1	1	0	0	502	499	500	537	34	43	
10	1	1	0	0	494	492	493	537	34	43	
11	1	1	0	0	505	505	494	536	35	43	
12	1	1	0	0	507	505	499	537	35	43	
13	1	1	0	0	504	500	487	536	36	43	
14	1	1	0	0	499	509	500	536	36	43	
15	1	1	0	0	501	522	539	537	36	42	
0	1	1	0	0	483	515	653	537	37	42	
1	1	1	0	0	480	515	706	539	37	42	
2	1	1	0	0	494	532	657	540	38	42	
3	1	1	0	0	506	502	558	542	38	42	
4	1	1	0	0	526	498	431	543	38	41	
5	1	1	0	0	529	484	286	543	39	41	
6	1	1	0	0	524	497	278	546	39	41	
7	1	1	0	0	531	526	349	547	39	41	
8	1	1	0	0	489	497	478	548	39	41	
9	1	1	0	0	488	513	523	550	40	41	
10	1	1	0	0	514	504	496	553	40	40	
11	1	1	0	0	554	524	479	555	40	40	
12	1	1	0	0	545	512	480	558	40	40	
13	1	1	0	0	513	507	523	561	40	40	
14	1	1	0	0	507	523	553	564	40	40	
15	1	1	0	0	511	524	579	567	40	40	
0	1	1	0	0	496	521	584	570	40	40	
1	1	1	0	0	504	523	583	572	39	40	
2	1	1	0	0	502	510	508	577	39	40	
3	1	1	0	0	513	508	483	581	39	40	
4	1	1	0	0	494	495	444	585	38	40	
5	1	1	0	0	498	504	484	590	38	40	
6	1	1	0	0	490	515	517	594	38	39	
7	1	1	0	0	503	529	556	599	37	39	
8	1	1	0	0	499	510	503	603	37	39	
9	1	1	0	0	506	501	515	607	36	39	
10	1	1	0	0	505	524	590	611	36	39	
11	1	1	0	0	488	507	575	616	35	39	
12	1	1	0	0	505	510	537	620	35	39	
13	1	1	0	0	513	511	508	624	34	38	
14	1	1	0	0	511	511	460	627	34	38	
15	1	1	0	0	512	514	464	631	33	38	
0	1	1	0	0	510	515	502	634	33	37	
1	1	1	0	0	501	514	532	636	32	37	
2	1	1	0	0	494	514	557	640	32	37	
3	1	1	0	0	510	527	558	641	31	36	
4	1	1	0	0	525	527	543	643	31	36	
5	1	1	0	0	509	503	519	644	30	36	
6	1	1	0	0	523	512	504	645	30	35	
7	1	1	0	0	530	518	478	645	30	35	
8	1	1	0	0	527	517	455	644	29	35	
9	1	1	0	0	521	514	407	644	29	35	
10	1	1	0	0	512	509	440	643	29	35	
11	1	1	0	0	494	507	502	642	28	34	
12	1	1	0	0	499	519	524	640	28	34	
13	1	1	0	0	493	514	501	638	28	34	
14	1	1	0	0	504	521	527	638	28	34	
15	1	1	0	0	525	536	535	635	28	34	
0	1	1	0	0	521	511	520	632	27	34	
1	1	1	0	0	506	491	519	630	27	34	
2	1	1	0	0	507	508	523	627	27	34	
3	1	1	0	0	507	515	519	624	27	34	
4	1	1	0	0	507	523	524	620	27	34	
5	1	1	0	0	504	521	522	617	27	34	
6	1	1	0	0	503	515	521	614	27	34	
7	1	1	0	0	509	520	517	610	27	34	
8	1	1	0	0	513	529	516	606	27	34	
9	1	1	0	0	503	514	513	604	27	34	
10	1	1	0	0	506	515	513	601	27	34	
11	1	1	0	0	508	519	512	599	28	34	
12	1	1	0	0	507	515	510	596	28	34	
13	1	1	0	0	504	507	504	594	28	34	
14	1	1	0	0	512	523	510	591	28	34	
15	1	1	0	0	512	542	506	590	28	34	
0	1	1	0	0	512	553	506	589	29	34	
1	1	1	0	0	511	557	506	587	29	35	
2	1	1	0	0	517	558	510	586	29	35	
3	1	1	0	0	514	540	512	583	30	35	
4	1	1	0	0	519	527	516	583	30	35	
5	1	1	0	0	527	515	515	582	30	35	
6	1	1	0	0	528	478	517	582	30	36	
7	1	1	0	0	513	404	518	582	31	36	
8	1	1	0	0	507	435	512	581	31	36	
9	1	1	0	0	500	455	504	580	31	36	
10	1	1	0	0	492	466	501	580	32	36	
11	1	1	0	0	498	511	499	580	32	36	
12	1	1	0	0	501	542	496	581	32	36	
13	1	1	0	0	504	545	504	580	32	36	
14	1	1	0	0	502	542	507	582	33	36	
15	1	1	0	0	498	521	509	582	33	36	
0	1	1	0	0	501	515	508	581	33	36	
1	1	1	0	0	524	533	504	582	33	36	
2	1	1	0	0	536	534	503	582	33	36	
3	1	1	0	0	551	536	519	582	34	36	
4	1	1	0	0	540	530	524	583	34	36	
5	1	1	0	0	510	512	528	583	34	36	
6	1	1	0	0	499	507	517	582	34	36	
7	1	1	0	0	513	525	516	583	34	36	
8	1	1	0	0	527	507	524	582	35	36	
9	1	1	0	0	540	487	519	583	35	36	
10	1	1	0	0	558	511	516	582	35	36	
11	1	1	0	0	528	524	524	583	35	36	
12	1	1	0	0	504	440	531	581	35	36	
13	1	1	0	0	483	413	521	582	35	36	
14	1	1	0	0	502	499	504	583	35	36	
15	1	1	0	0	511	539	496	583	35	36	
0	1	1	0	0	513	527	500	584	35	36	
1	1	1	0	0	503	518	507	584	35	36	
2	1	1	0	0	492	538	508	584	35	36	
3	1	1	0	0	486	559	506	586	35	36	
4	1	1	0	0	459	526	507	586	35	36	
5	1	1	0	0	448	473	512	587	35	36	
6	1	1	0	0	449	486	508	587	35	36	
7	1	1	0	0	457	508	505	586	35	36	
8	1	1	0	0	496	519	504	588	35	36	
9	1	1	0	0	529	483	504	587	35	36	
10	1	1	0	0	524	435	508	588	35	36	
11	1	1	0	0	539	461	511	587	35	36	
12	1	1	0	0	552	508	506	587	35	36	
13	1	1	0	0	552	507	507	587	35	36	
14	1	1	0	0	558	525	512	587	35	36	
15	1	1	0	0	552	543	508	586	35	36	
0	1	1	0	0	530	522	511	586	35	37	
1	1	1	0	0	517	518	515	584	35	37	
2	1	1	0	0	500	544	513	583	35	37	
3	1	1	0	0	510	542	516	583	35	37	
4	1	1	0	0	510	556	517	583	35	37	
5	1	1	0	0	518	520	515	583	35	37	
6	1	1	0	0	549	467	522	583	35	37	
7	1	1	0	0	545	479	524	584	35	37	
8	1	1	0	0	509	519	515	584	35	37	
9	1	1	0	0	492	541	508	584	35	37	
10	1	1	0	0	497	558	511	584	35	37	
11	1	1	0	0	481	504	513	584	35	36	
12	1	1	0	0	461	501	516	585	35	36	
13	1	1	0	0	465	536	510	584	34	36	
14	1	1	0	0	477	547	510	584	34	36	
15	1	1	0	0	484	545	511	583	34	36	
0	1	1	0	0	489	485	515	584	34	36	
1	1	1	0	0	516	492	513	583	34	36	
2	1	1	0	0	526	500	509	582	34	36	
3	1	1	0	0	535	515	509	582	34	35	
4	1	1	0	0	530	511	511	582	34	35	
5	1	1	0	0	512	504	517	582	34	35	
6	1	1	0	0	501	520	518	582	33	35	
7	1	1	0	0	487	504	515	581	33	35	
8	1	1	0	0	504	504	515	580	33	35	
9	1	1	0	0	509	506	509	579	33	35	
10	1	1	0	0	515	499	508	579	33	35	
11	1	1	0	0	513	526	506	578	32	35	
12	1	1	0	0	508	536	505	577	32	35	
13	1	1	0	0	506	542	504	577	32	35	
14	1	1	0	0	506	541	508	577	32	34	
15	1	1	0	0	517	544	510	577	32	34	
0	1	1	0	0	509	540	511	577	31	34	
1	1	1	0	0	505	545	510	576	31	34	
2	1	1	0	0	505	543	515	575	31	35	
3	1	1	0	0	510	541	516	574	30	35	
4	1	1	0	0	511	535	515	573	30	35	
5	1	1	0	0	505	507	514	571	30	35	
6	1	1	0	0	499	458	511	570	29	35	
7	1	1	0	0	496	433	514	569	29	35	
8	1	1	0	0	491	451	505	568	28	35	
9	1	1	0	0	486	481	503	567	28	35	
10	1	1	0	0	494	523	498	566	28	35	
11	1	1	0	0	499	539	500	564	28	35	
12	1	1	0	0	505	546	499	564	27	35	
13	1	1	0	0	504	537	498	563	27	35	
14	1	1	0	0	506	534	502	562	27	35	
15	1	1	0	0	511	526	503	561	27	35	
0	1	1	0	0	513	527	503	560	26	35	
1	1	1	0	0	506	494	503	559	26	35	
2	1	1	0	0	507	494	504	557	25	35	
3	1	1	0	0	505	504	501	556	25	35	
4	1	1	0	0	503	517	501	556	25	35	
5	1	1	0	0	501	516	502	554	24	34	
6	1	1	0	0	507	523	500	555	24	34	
7	1	1	0	0	503	508	500	553	24	34	
8	1	1	0	0	500	507	502	553	24	34	
9	1	1	0	0	501	515	503	553	23	34	
10	1	1	0	0	506	519	507	552	23	34	
11	1	1	0	0	515	517	505	553	23	34	
12	1	1	0	0	517	512	505	553	22	33	
13	1	1	0	0	512	512	504	553	22	33	
14	1	1	0	0	511	512	505	555	22	33	
15	1	1	0	0	515	515	505	555	22	33	
0	1	1	0	0	514	516	507	557	22	33	
1	1	1	0	0	509	510	504	558	21	33	
2	1	1	0	0	508	508	508	560	21	33	
3	1	1	0	0	517	512	504	562	21	33	
4	1	1	0	0	525	513	507	563	21	33	
5	1	1	0	0	527	511	509	565	21	33	
6	1	1	0	0	533	511	506	567	21	33	
7	1	1	0	0	531	509	504	568	21	33	
8	1	1	0	0	537	512	510	570	20	33	
9	1	1	0	0	533	510	509	572	20	33	
10	1	1	0	0	535	510	513	574	20	33	
11	1	1	0	0	532	513	513	576	20	33	
12	1	1	0	0	530	515	507	579	20	33	
13	1	1	0	0	531	518	506	582	20	33	
14	1	1	0	0	526	520	514	584	20	33	
15	1	1	0	0	524	514	524	587	20	33	
0	1	1	0	0	519	501	517	590	20	33	
1	1	1	0	0	519	498	508	592	21	33	
2	1	1	0	0	518	510	508	596	21	33	
3	1	1	0	0	517	514	508	599	21	33	
4	1	1	0	0	511	513	508	603	21	33	
5	1	1	0	0	510	512	505	605	21	33	
6	1	1	0	0	507	512	506	609	21	33	
7	1	1	0	0	508	505	499	613	21	34	
8	1	1	0	0	508	506	504	615	22	34	
9	1	1	0	0	510	507	522	619	22	34	
10	1	1	0	0	506	508	537	620	22	34	
11	1	1	0	0	508	512	552	623	23	34	
12	1	1	0	0	510	514	541	625	23	34	
13	1	1	0	0	507	513	545	625	23	35	
14	1	1	0	0	509	515	566	627	24	35	
15	1	1	0	0	516	523	542	628	24	35	
0	1	1	0	0	513	526	521	628	24	35	
1	1	1	0	0	510	519	497	628	25	35	
2	1	1	0	0	501	507	515	627	25	36	
3	1	1	0	0	500	499	502	627	25	36	
4	1	1	0	0	500	509	438	627	26	36	
5	1	1	0	0	499	514	417	625	26	36	
6	1	1	0	0	497	525	403	624	26	36	
7	1	1	0	0	504	532	400	622	27	36	
8	1	1	0	0	506	525	412	620	27	37	
9	1	1	0	0	492	494	446	617	27	37	
10	1	1	0	0	492	495	477	614	28	37	
11	1	1	0	0	490	505	496	611	28	37	
12	1	1	0	0	485	503	518	607	28	37	
13	1	1	0	0	491	510	550	604	28	37	
14	1	1	0	0	496	518	553	600	28	38	
15	1	1	0	0	504	526	575	596	28	38	
0	1	1	0	0	505	525	616	592	29	38	
1	1	1	0	0	491	512	598	588	29	38	
2	1	1	0	0	494	493	561	583	29	38	
3	1	1	0	0	502	507	538	579	29	38	
4	1	1	0	0	515	524	544	574	29	38	
5	1	1	0	0	508	518	551	569	29	38	
6	1	1	0	0	499	513	535	564	29	39	
7	1	1	0	0	501	513	495	559	29	39	
8	1	1	0	0	499	502	463	555	28	39	
9	1	1	0	0	496	505	473	551	28	39	
10	1	1	0	0	497	505	482	549	28	38	
11	1	1	0	0	498	524	507	546	28	38	
12	1	1	0	0	496	526	566	544	28	38	
13	1	1	0	0	496	496	524	541	28	38	
14	1	1	0	0	498	494	483	540	27	38	
15	1	1	0	0	508	525	492	539	27	38	
0	1	1	0	0	536	559	448	536	27	38	
1	1	1	0	0	531	532	399	535	27	38	
2	1	1	0	0	526	508	354	534	26	38	
3	1	1	0	0	514	512	397	531	26	38	
4	1	1	0	0	496	506	482	531	26	38	
5	1	1	0	0	492	505	554	530	25	38	
6	1	1	0	0	493	504	546	530	25	38	
7	1	1	0	0	502	496	494	529	25	38	
8	1	1	0	0	511	497	500	529	24	38	
9	1	1	0	0	535	508	523	529	24	39	
10	1	1	0	0	529	515	553	528	24	39	
11	1	1	0	0	532	511	602	529	24	39	
12	1	1	0	0	528	521	618	528	24	39	
13	1	1	0	0	523	524	582	529	24	39	
14	1	1	0	0	527	520	541	529	23	39	
15	1	1	0	0	518	510	504	529	23	39	
0	1	1	0	0	518	502	465	529	23	39	
1	1	1	0	0	522	510	455	530	23	39	
2	1	1	0	0	517	508	451	530	23	39	
3	1	1	0	0	512	512	485	532	23	39	
4	1	1	0	0	506	523	509	532	23	40	
5	1	1	0	0	521	524	523	534	23	40	
6	1	1	0	0	518	515	526	536	23	40	
7	1	1	0	0	505	509	527	536	24	40	
8	1	1	0	0	509	511	525	537	24	40	
9	1	1	0	0	508	508	529	538	24	40	
10	1	1	0	0	514	508	535	538	24	40	
11	1	1	0	0	525	518	539	540	24	40	
12	1	1	0	0	516	522	523	542	24	40	
13	1	1	0	0	514	510	511	543	25	40	
14	1	1	0	0	511	509	542	544	25	40	
15	1	1	0	0	524	539	543	546	25	40	
0	1	1	0	0	509	503	492	547	25	40	
1	1	1	0	0	513	500	487	549	26	40	
2	1	1	0	0	516	512	491	551	26	40	
3	1	1	0	0	518	518	489	551	26	40	
4	1	1	0	0	519	516	500	553	26	40	
5	1	1	0	0	515	518	490	555	27	40	
6	1	1	0	0	515	512	478	555	27	40	
7	1	1	0	0	512	500	471	557	27	40	
8	1	1	0	0	526	504	495	559	27	40	
9	1	1	0	0	525	519	523	560	28	40	
10	1	1	0	0	512	515	532	562	28	39	
11	1	1	0	0	503	512	513	564	28	39	
12	1	1	0	0	502	511	493	567	29	39	
13	1	1	0	0	497	513	489	567	29	39	
14	1	1	0	0	505	510	467	569	29	39	
15	1	1	0	0	506	511	498	569	30	39	
0	1	1	0	0	515	516	561	570	30	39	
1	1	1	0	0	518	516	631	571	30	39	
2	1	1	0	0	509	514	574	572	31	39	
3	1	1	0	0	510	504	521	572	31	39	
4	1	1	0	0	510	501	486	573	31	39	
5	1	1	0	0	504	500	431	574	32	39	
6	1	1	0	0	516	504	415	575	32	39	
7	1	1	0	0	505	501	442	576	32	38	
8	1	1	0	0	495	512	525	577	32	38	
9	1	1	0	0	507	532	575	578	33	38	
10	1	1	0	0	507	539	630	579	33	38	
11	1	1	0	0	509	527	567	582	33	38	
12	1	1	0	0	518	519	515	583	33	38	
13	1	1	0	0	518	507	485	584	34	38	
14	1	1	0	0	514	497	496	586	34	38	
15	1	1	0	0	507	506	605	587	34	38	
0	1	1	0	0	486	515	619	588	34	38	
1	1	1	0	0	489	519	575	590	34	38	
2	1	1	0	0	511	531	472	591	34	38	
3	1	1	0	0	559	544	378	592	34	38	
4	1	1	0	0	512	482	441	593	34	38	
5	1	1	0	0	508	494	440	595	35	38	
6	1	1	0	0	502	494	340	596	34	38	
7	1	1	0	0	507	479	328	596	34	38	
8	1	1	0	0	508	500	396	597	34	38	
9	1	1	0	0	498	505	456	598	34	38	
10	1	1	0	0	495	520	498	599	34	38	
11	1	1	0	0	498	523	524	600	34	38	
12	1	1	0	0	499	519	561	601	34	38	
13	1	1	0	0	498	513	582	602	34	37	
14	1	1	0	0	499	522	619	604	34	37	
15	1	1	0	0	513	530	620	604	33	37	
0	1	1	0	0	512	515	594	606	33	37	
1	1	1	0	0	520	512	625	607	33	37	
2	1	1	0	0	504	519	619	607	33	37	
3	1	1	0	0	512	531	586	608	33	37	
4	1	1	0	0	516	512	535	608	32	37	
5	1	1	0	0	519	508	605	608	32	37	
6	1	1	0	0	511	526	647	609	32	37	
7	1	1	0	0	505	536	580	609	32	37	
8	1	1	0	0	513	517	443	609	31	37	
9	1	1	0	0	534	524	399	609	31	36	
10	1	1	0	0	530	509	323	608	31	36	
11	1	1	0	0	523	487	206	608	31	36	
12	1	1	0	0	499	462	205	609	30	36	
13	1	1	0	0	486	468	322	609	30	36	
14	1	1	0	0	493	512	487	609	30	36	
15	1	1	0	0	494	528	556	608	29	36	
0	1	1	0	0	493	525	604	607	29	36	
1	1	1	0	0	502	526	596	606	29	36	
2	1	1	0	0	518	526	564	604	29	36	
3	1	1	0	0	526	523	543	604	28	36	
4	1	1	0	0	521	521	521	602	28	36	
5	1	1	0	0	519	517	548	601	28	35	
6	1	1	0	0	521	513	545	600	28	35	
7	1	1	0	0	517	504	543	598	28	35	
8	1	1	0	0	514	516	556	598	28	35	
9	1	1	0	0	519	515	552	596	28	35	
10	1	1	0	0	524	514	550	595	28	35	
11	1	1	0	0	527	522	544	593	28	35	
12	1	1	0	0	522	510	535	592	28	35	
13	1	1	0	0	522	509	534	592	28	35	
14	1	1	0	0	523	515	530	591	27	34	
15	1	1	0	0	524	518	527	591	27	34	
0	1	1	0	0	520	515	521	591	27	34	
1	1	1	0	0	515	516	521	591	27	34	
2	1	1	0	0	521	515	518	591	27	34	
3	1	1	0	0	513	513	513	591	27	34	
4	1	1	0	0	506	509	509	591	27	34	
5	1	1	0	0	509	511	510	591	27	34	
6	1	1	0	0	510	510	510	591	27	34	
7	1	1	0	0	510	516	505	590	27	34	
8	1	1	0	0	529	531	505	589	27	34	
9	1	1	0	0	505	507	502	589	27	34	
10	1	1	0	0	507	517	502	589	27	34	
11	1	1	0	0	504	523	502	589	27	34	
12	1	1	0	0	503	526	503	589	27	34	
13	1	1	0	0	498	524	505	589	27	34	
14	1	1	0	0	502	522	505	589	27	34	
15	1	1	0	0	517	519	505	588	27	34	
0	1	1	0	0	513	520	506	588	27	34	
1	1	1	0	0	507	526	508	588	28	34	
2	1	1	0	0	503	513	508	589	28	34	
3	1	1	0	0	511	509	512	588	28	34	
4	1	1	0	0	503	521	509	588	28	34	
5	1	1	0	0	497	526	504	588	28	34	
6	1	1	0	0	498	542	504	588	28	34	
7	1	1	0	0	497	536	507	588	28	34	
8	1	1	0	0	497	471	510	588	28	34	
9	1	1	0	0	493	445	511	588	29	34	
10	1	1	0	0	497	472	506	588	29	35	
11	1	1	0	0	505	487	502	588	29	35	
12	1	1	0	0	494	477	504	588	29	35	
13	1	1	0	0	483	487	504	588	29	35	
14	1	1	0	0	480	527	500	587	30	35	
15	1	1	0	0	494	530	503	586	30	35	
0	1	1	0	0	520	526	507	586	30	35	
1	1	1	0	0	520	519	509	585	30	35	
2	1	1	0	0	516	540	510	584	30	35	
3	1	1	0	0	526	566	508	584	31	35	
4	1	1	0	0	533	591	510	583	31	36	
5	1	1	0	0	524	566	513	583	31	36	
6	1	1	0	0	516	521	517	582	31	36	
7	1	1	0	0	515	503	520	581	32	36	
8	1	1	0	0	520	549	517	580	32	36	
9	1	1	0	0	523	553	516	580	32	36	
10	1	1	0	0	521	550	512	579	32	36	
11	1	1	0	0	518	493	514	579	32	36	
12	1	1	0	0	506	407	518	577	33	36	
13	1	1	0	0	500	426	518	577	33	36	
14	1	1	0	0	519	505	505	576	33	36	
15	1	1	0	0	530	489	506	576	33	36	
0	1	1	0	0	515	460	512	576	33	36	
1	1	1	0	0	490	448	512	575	33	36	
2	1	1	0	0	456	407	507	575	34	36	
3	1	1	0	0	447	460	500	574	34	36	
4	1	1	0	0	474	521	493	575	34	36	
5	1	1	0	0	504	532	492	574	34	36	
6	1	1	0	0	518	483	503	574	34	36	
7	1	1	0	0	527	491	504	574	34	36	
8	1	1	0	0	546	536	499	574	35	36	
9	1	1	0	0	552	579	500	574	35	36	
10	1	1	0	0	546	598	510	573	35	36	
11	1	1	0	0	515	596	519	574	35	36	
12	1	1	0	0	520	585	526	574	35	36	
13	1	1	0	0	520	568	524	574	35	36	
14	1	1	0	0	539	537	527	574	35	36	
15	1	1	0	0	546	509	527	574	35	36	
0	1	1	0	0	551	499	531	574	36	36	
1	1	1	0	0	533	439	528	574	36	36	
2	1	1	0	0	510	417	529	573	36	36	
3	1	1	0	0	494	455	516	574	36	36	
4	1	1	0	0	469	438	509	574	36	36	
5	1	1	0	0	473	451	506	574	36	36	
6	1	1	0	0	491	492	501	575	36	36	
7	1	1	0	0	501	513	502	575	36	36	
8	1	1	0	0	494	547	500	577	36	36	
9	1	1	0	0	502	580	504	577	36	36	
10	1	1	0	0	511	587	509	577	36	36	
11	1	1	0	0	520	603	505	578	36	36	
12	1	1	0	0	527	580	504	578	36	36	
13	1	1	0	0	523	548	510	579	36	35	
