# OpenSignals Text File Format
# {"20:15:12:22:97:41": {"sensor": ["RAW", "RAW", "RAW", "RAW", "RAW", "RAW"], "device name": "20:15:12:22:97:41", "column": ["nSeq", "I1", "I2", "O1", "O2", "EMG1", "EMG2", "EMG3", "ACC1", "ACC2", "ACC3"], "sync interval": 2, "time": "21:34:20.444", "comments": "", "device connection": "BTH20:15:12:22:97:41", "channels": [1, 2, 3, 4, 5, 6], "date": "2017-4-26", "mode": 0, "digital IO": [0, 0, 1, 1], "firmware version": 1281, "device": "bitalino_rev", "position": 0, "sampling rate": 1000, "label": ["EMG1", "EMG2", "EMG3", "ACC1", "ACC2", "ACC3"], "resolution": [4, 1, 1, 1, 1, 10, 10, 10, 10, 6, 6], "special": [{}, {}, {}, {}, {}, {}]}}
# EndOfHeader
0	1	1	0	0	510	518	508	465	31	38	
1	1	1	0	0	511	515	510	465	31	38	
2	1	1	0	0	512	515	510	465	31	38	
3	1	1	0	0	510	515	509	466	31	38	
4	1	1	0	0	509	508	508	466	31	38	
5	1	1	0	0	511	502	508	466	31	38	
6	1	1	0	0	511	506	506	466	31	38	
7	1	1	0	0	507	507	508	465	31	38	
8	1	1	0	0	510	512	506	465	31	38	
9	1	1	0	0	508	511	510	465	31	38	
10	1	1	0	0	508	513	512	465	31	38	
11	1	1	0	0	510	517	508	465	31	38	
12	1	1	0	0	509	515	508	465	31	37	
13	1	1	0	0	509	512	510	465	31	37	
14	1	1	0	0	512	517	508	466	31	37	
15	1	1	0	0	509	520	510	466	31	38	
0	1	1	0	0	509	516	511	465	31	37	
1	1	1	0	0	508	515	508	465	31	37	
2	1	1	0	0	511	507	509	466	31	37	
3	1	1	0	0	512	507	508	465	31	38	
4	1	1	0	0	511	511	509	465	31	38	
5	1	1	0	0	509	503	509	465	31	38	
6	1	1	0	0	511	502	508	466	31	37	
7	1	1	0	0	509	514	507	466	31	37	
8	1	1	0	0	509	517	507	466	31	37	
9	1	1	0	0	509	522	506	466	31	37	
10	1	1	0	0	510	519	510	465	31	37	
11	1	1	0	0	512	517	509	466	31	37	
12	1	1	0	0	511	517	512	466	31	38	
13	1	1	0	0	510	517	512	466	31	37	
14	1	1	0	0	511	514	511	465	31	38	
15	1	1	0	0	513	516	509	465	30	37	
0	1	1	0	0	513	511	509	465	30	37	
1	1	1	0	0	512	503	510	465	30	37	
2	1	1	0	0	511	509	510	465	30	37	
3	1	1	0	0	508	513	509	466	31	37	
4	1	1	0	0	512	514	511	465	31	37	
5	1	1	0	0	512	513	511	466	31	37	
6	1	1	0	0	512	517	510	466	31	37	
7	1	1	0	0	509	515	508	466	31	37	
8	1	1	0	0	511	515	509	466	31	37	
9	1	1	0	0	510	519	507	465	31	37	
10	1	1	0	0	511	519	510	465	31	37	
11	1	1	0	0	510	517	508	465	30	37	
12	1	1	0	0	512	516	508	465	30	37	
13	1	1	0	0	511	513	511	466	31	37	
14	1	1	0	0	511	508	508	466	30	37	
15	1	1	0	0	510	511	510	466	30	37	
0	1	1	0	0	508	509	510	466	30	37	
1	1	1	0	0	512	508	509	466	31	37	
2	1	1	0	0	508	512	510	465	31	37	
3	1	1	0	0	510	514	508	465	31	37	
4	1	1	0	0	510	513	508	465	31	37	
5	1	1	0	0	509	512	509	465	31	37	
6	1	1	0	0	511	516	506	465	30	37	
7	1	1	0	0	510	519	507	466	30	37	
8	1	1	0	0	508	519	509	466	30	37	
9	1	1	0	0	509	512	510	466	31	37	
10	1	1	0	0	508	512	511	465	31	37	
11	1	1	0	0	510	516	508	466	30	37	
12	1	1	0	0	509	513	510	466	31	37	
13	1	1	0	0	508	506	510	465	31	37	
14	1	1	0	0	509	512	510	466	31	37	
15	1	1	0	0	509	514	507	465	30	37	
0	1	1	0	0	510	507	507	465	30	37	
1	1	1	0	0	508	511	508	465	30	37	
2	1	1	0	0	510	510	511	465	30	37	
3	1	1	0	0	511	512	508	466	30	37	
4	1	1	0	0	510	510	507	466	31	37	
5	1	1	0	0	510	514	508	466	31	37	
6	1	1	0	0	512	517	507	467	30	37	
7	1	1	0	0	510	517	510	466	31	37	
8	1	1	0	0	510	515	511	466	31	37	
9	1	1	0	0	510	515	512	466	31	37	
10	1	1	0	0	510	515	511	465	31	37	
11	1	1	0	0	514	517	510	465	30	37	
12	1	1	0	0	510	518	510	465	30	37	
13	1	1	0	0	511	519	507	466	31	37	
14	1	1	0	0	512	519	508	466	30	37	
15	1	1	0	0	511	516	510	467	30	37	
0	1	1	0	0	510	513	511	467	31	37	
1	1	1	0	0	510	512	509	466	31	37	
2	1	1	0	0	508	512	511	466	31	37	
3	1	1	0	0	508	514	509	466	31	37	
4	1	1	0	0	509	513	506	466	31	37	
5	1	1	0	0	510	511	508	465	31	37	
6	1	1	0	0	508	506	508	465	31	37	
7	1	1	0	0	510	507	508	465	31	37	
8	1	1	0	0	509	509	509	467	31	37	
9	1	1	0	0	511	509	508	466	31	37	
10	1	1	0	0	512	510	510	466	31	37	
11	1	1	0	0	511	514	509	466	31	37	
12	1	1	0	0	508	518	508	467	31	37	
13	1	1	0	0	509	515	510	466	31	37	
14	1	1	0	0	513	515	509	466	31	37	
15	1	1	0	0	513	515	508	465	31	37	
0	1	1	0	0	512	519	509	466	31	37	
1	1	1	0	0	512	516	511	465	31	37	
2	1	1	0	0	508	515	510	466	31	37	
3	1	1	0	0	510	515	509	466	31	37	
4	1	1	0	0	511	512	511	466	31	37	
5	1	1	0	0	507	512	509	465	31	37	
6	1	1	0	0	508	513	510	466	31	37	
7	1	1	0	0	508	512	510	466	31	37	
8	1	1	0	0	511	512	510	466	31	37	
9	1	1	0	0	511	511	512	465	31	37	
10	1	1	0	0	509	513	508	465	31	37	
11	1	1	0	0	511	497	510	466	31	37	
12	1	1	0	0	511	502	510	466	31	37	
13	1	1	0	0	512	509	510	465	31	37	
14	1	1	0	0	512	517	508	466	31	37	
15	1	1	0	0	511	523	508	465	31	37	
0	1	1	0	0	510	520	508	466	31	37	
1	1	1	0	0	512	519	510	466	31	37	
2	1	1	0	0	512	521	508	466	31	37	
3	1	1	0	0	512	518	511	466	31	37	
4	1	1	0	0	513	510	511	466	31	37	
5	1	1	0	0	512	509	510	465	31	37	
6	1	1	0	0	511	503	508	466	31	37	
7	1	1	0	0	510	505	508	465	31	37	
8	1	1	0	0	511	511	509	466	31	37	
9	1	1	0	0	510	516	509	465	31	37	
10	1	1	0	0	509	515	510	466	31	37	
11	1	1	0	0	508	517	509	466	31	37	
12	1	1	0	0	511	517	508	467	31	37	
13	1	1	0	0	511	519	508	466	31	37	
14	1	1	0	0	509	515	511	466	31	37	
15	1	1	0	0	511	517	510	466	31	37	
0	1	1	0	0	511	517	511	465	31	37	
1	1	1	0	0	510	515	511	466	31	37	
2	1	1	0	0	509	520	511	465	31	37	
3	1	1	0	0	510	519	508	466	31	37	
4	1	1	0	0	511	519	509	466	31	37	
5	1	1	0	0	509	509	509	466	31	37	
6	1	1	0	0	510	493	511	466	31	37	
7	1	1	0	0	510	505	509	466	31	37	
8	1	1	0	0	509	516	508	467	31	37	
9	1	1	0	0	508	517	510	466	31	37	
10	1	1	0	0	507	519	508	466	31	37	
11	1	1	0	0	511	515	509	465	31	37	
12	1	1	0	0	510	506	511	465	31	37	
13	1	1	0	0	510	508	510	465	31	37	
14	1	1	0	0	508	515	508	465	31	37	
15	1	1	0	0	507	516	505	466	31	37	
0	1	1	0	0	510	514	507	465	31	37	
1	1	1	0	0	511	515	508	465	31	37	
2	1	1	0	0	511	516	509	466	31	37	
3	1	1	0	0	512	514	510	466	31	37	
4	1	1	0	0	510	510	511	466	31	37	
5	1	1	0	0	512	508	511	466	31	37	
6	1	1	0	0	509	512	510	465	31	37	
7	1	1	0	0	511	516	507	465	31	37	
8	1	1	0	0	509	510	506	466	31	37	
9	1	1	0	0	510	503	511	466	31	37	
10	1	1	0	0	512	510	509	466	31	37	
11	1	1	0	0	511	516	509	466	31	37	
12	1	1	0	0	511	516	508	467	31	37	
13	1	1	0	0	511	516	510	466	31	37	
14	1	1	0	0	508	516	510	467	31	37	
15	1	1	0	0	512	518	510	466	31	37	
0	1	1	0	0	512	519	509	466	31	37	
1	1	1	0	0	511	517	510	465	31	37	
2	1	1	0	0	510	513	508	465	31	37	
3	1	1	0	0	507	509	509	466	31	37	
4	1	1	0	0	511	508	510	466	31	37	
5	1	1	0	0	512	511	508	466	31	37	
6	1	1	0	0	512	513	508	466	31	37	
7	1	1	0	0	510	514	508	467	31	37	
8	1	1	0	0	510	516	508	466	31	37	
9	1	1	0	0	511	515	510	467	31	37	
10	1	1	0	0	509	514	510	466	31	37	
11	1	1	0	0	509	516	508	466	31	37	
12	1	1	0	0	509	519	506	466	31	37	
13	1	1	0	0	512	515	509	465	31	37	
14	1	1	0	0	513	512	509	466	31	37	
15	1	1	0	0	511	513	512	466	31	37	
0	1	1	0	0	512	515	509	466	31	37	
1	1	1	0	0	512	517	508	466	31	37	
2	1	1	0	0	509	508	510	466	31	37	
3	1	1	0	0	510	505	508	466	31	37	
4	1	1	0	0	511	514	508	467	31	37	
5	1	1	0	0	512	514	509	466	31	37	
6	1	1	0	0	508	515	511	466	31	37	
7	1	1	0	0	508	516	509	465	31	37	
8	1	1	0	0	512	505	511	465	31	37	
9	1	1	0	0	511	508	508	466	31	37	
10	1	1	0	0	508	509	508	465	31	37	
11	1	1	0	0	509	511	509	465	31	37	
12	1	1	0	0	509	510	509	465	31	37	
13	1	1	0	0	509	511	508	466	31	37	
14	1	1	0	0	509	513	508	466	31	37	
15	1	1	0	0	509	518	508	466	31	37	
0	1	1	0	0	511	518	509	465	31	37	
1	1	1	0	0	510	517	511	465	31	37	
2	1	1	0	0	510	517	510	464	31	37	
3	1	1	0	0	513	512	513	465	31	37	
4	1	1	0	0	512	518	508	465	31	37	
5	1	1	0	0	511	512	510	465	31	37	
6	1	1	0	0	511	508	511	465	31	37	
7	1	1	0	0	511	510	508	466	31	37	
8	1	1	0	0	511	510	509	465	31	37	
9	1	1	0	0	508	512	508	466	31	37	
10	1	1	0	0	508	516	508	465	31	37	
11	1	1	0	0	507	514	509	465	31	37	
12	1	1	0	0	510	513	508	465	31	37	
13	1	1	0	0	509	512	509	465	31	37	
14	1	1	0	0	509	512	510	465	31	37	
15	1	1	0	0	511	515	509	465	31	37	
0	1	1	0	0	508	516	509	465	31	37	
1	1	1	0	0	510	514	508	465	31	37	
2	1	1	0	0	510	516	510	465	31	37	
3	1	1	0	0	512	518	509	465	31	37	
4	1	1	0	0	510	522	509	465	31	37	
5	1	1	0	0	512	521	508	465	31	37	
6	1	1	0	0	511	519	510	465	31	37	
7	1	1	0	0	509	516	509	465	31	37	
8	1	1	0	0	511	516	510	465	31	37	
9	1	1	0	0	513	505	512	465	31	37	
10	1	1	0	0	515	504	511	464	31	37	
11	1	1	0	0	515	500	509	465	31	37	
12	1	1	0	0	511	509	511	465	31	37	
13	1	1	0	0	508	519	508	465	31	37	
14	1	1	0	0	510	514	509	465	31	37	
15	1	1	0	0	511	510	510	465	31	37	
0	1	1	0	0	509	511	509	466	31	37	
1	1	1	0	0	508	512	508	465	31	37	
2	1	1	0	0	509	510	509	465	31	37	
3	1	1	0	0	509	505	510	465	31	37	
4	1	1	0	0	508	508	510	464	31	37	
5	1	1	0	0	511	509	510	465	31	37	
6	1	1	0	0	511	515	509	464	31	37	
7	1	1	0	0	510	519	508	465	31	37	
8	1	1	0	0	511	518	509	465	31	37	
9	1	1	0	0	510	520	508	465	31	37	
10	1	1	0	0	510	521	508	464	31	37	
11	1	1	0	0	512	522	510	465	31	37	
12	1	1	0	0	511	520	510	465	31	37	
13	1	1	0	0	515	517	510	465	31	37	
14	1	1	0	0	511	516	511	466	31	37	
15	1	1	0	0	511	509	510	465	31	37	
0	1	1	0	0	511	503	511	465	31	37	
1	1	1	0	0	509	508	509	465	31	37	
2	1	1	0	0	511	500	509	464	31	37	
3	1	1	0	0	510	507	509	465	31	37	
4	1	1	0	0	507	519	505	465	31	37	
5	1	1	0	0	509	519	509	466	31	37	
6	1	1	0	0	509	516	510	465	31	37	
7	1	1	0	0	511	519	510	466	31	37	
8	1	1	0	0	509	515	511	466	31	37	
9	1	1	0	0	510	516	509	466	31	37	
10	1	1	0	0	510	518	511	465	31	37	
11	1	1	0	0	512	514	508	465	31	37	
12	1	1	0	0	512	509	509	465	31	37	
13	1	1	0	0	508	510	510	465	31	37	
14	1	1	0	0	511	513	508	465	31	37	
15	1	1	0	0	512	514	509	464	31	37	
0	1	1	0	0	509	516	508	465	31	37	
1	1	1	0	0	508	519	509	465	31	37	
2	1	1	0	0	510	515	511	465	31	37	
3	1	1	0	0	513	507	512	465	31	37	
4	1	1	0	0	514	500	508	465	31	37	
5	1	1	0	0	511	503	508	465	31	37	
6	1	1	0	0	507	510	510	466	31	37	
7	1	1	0	0	507	514	506	465	31	37	
8	1	1	0	0	506	514	507	465	31	37	
9	1	1	0	0	508	515	505	464	31	37	
10	1	1	0	0	508	515	508	464	31	37	
11	1	1	0	0	511	515	509	465	31	37	
12	1	1	0	0	510	518	510	465	31	37	
13	1	1	0	0	511	515	509	465	31	37	
14	1	1	0	0	511	517	511	465	31	37	
15	1	1	0	0	511	513	510	465	31	37	
0	1	1	0	0	511	516	510	466	31	37	
1	1	1	0	0	512	518	510	465	31	37	
2	1	1	0	0	514	517	511	465	31	37	
3	1	1	0	0	512	516	510	465	31	37	
4	1	1	0	0	511	516	507	465	31	37	
5	1	1	0	0	509	515	509	465	31	37	
6	1	1	0	0	512	510	510	465	31	37	
7	1	1	0	0	508	508	510	465	31	37	
8	1	1	0	0	506	505	508	465	31	37	
9	1	1	0	0	510	507	509	465	31	37	
10	1	1	0	0	507	508	509	465	31	37	
11	1	1	0	0	508	513	507	465	31	37	
12	1	1	0	0	507	521	509	466	31	37	
13	1	1	0	0	508	515	510	465	31	37	
14	1	1	0	0	511	512	510	465	31	37	
15	1	1	0	0	510	514	510	465	31	37	
0	1	1	0	0	510	518	508	465	31	37	
1	1	1	0	0	510	517	508	465	31	37	
2	1	1	0	0	512	517	508	465	31	37	
3	1	1	0	0	512	514	510	465	31	37	
4	1	1	0	0	510	513	511	466	31	37	
5	1	1	0	0	512	513	510	466	31	37	
6	1	1	0	0	515	514	510	466	31	37	
7	1	1	0	0	511	516	510	466	31	37	
8	1	1	0	0	510	518	510	465	31	37	
9	1	1	0	0	512	513	508	466	31	37	
10	1	1	0	0	511	514	507	465	31	37	
11	1	1	0	0	511	512	509	466	31	37	
12	1	1	0	0	510	512	510	465	31	37	
13	1	1	0	0	511	514	508	465	31	37	
14	1	1	0	0	509	509	510	466	31	37	
15	1	1	0	0	513	499	510	465	31	37	
0	1	1	0	0	513	497	506	466	31	37	
1	1	1	0	0	506	509	507	466	31	37	
2	1	1	0	0	505	517	508	465	31	37	
3	1	1	0	0	506	519	507	466	31	37	
4	1	1	0	0	508	518	508	466	31	37	
5	1	1	0	0	510	511	511	466	31	37	
6	1	1	0	0	508	508	510	466	31	37	
7	1	1	0	0	510	504	508	466	31	37	
8	1	1	0	0	508	509	509	465	31	37	
9	1	1	0	0	509	514	507	465	31	37	
10	1	1	0	0	511	518	510	465	31	37	
11	1	1	0	0	512	521	509	466	31	37	
12	1	1	0	0	510	521	511	465	31	37	
13	1	1	0	0	511	523	510	466	31	37	
14	1	1	0	0	513	524	511	466	31	37	
15	1	1	0	0	514	515	510	466	31	37	
0	1	1	0	0	514	513	511	466	31	37	
1	1	1	0	0	512	508	513	465	31	37	
2	1	1	0	0	509	508	512	466	31	37	
3	1	1	0	0	509	508	510	465	31	37	
4	1	1	0	0	509	513	508	465	31	38	
5	1	1	0	0	510	516	509	465	31	37	
6	1	1	0	0	509	514	510	465	31	37	
7	1	1	0	0	511	513	508	465	31	37	
8	1	1	0	0	509	513	507	466	31	37	
9	1	1	0	0	509	515	507	466	31	37	
10	1	1	0	0	511	515	508	465	31	37	
11	1	1	0	0	511	513	510	466	31	37	
12	1	1	0	0	510	512	509	466	31	37	
13	1	1	0	0	509	515	510	465	31	37	
14	1	1	0	0	513	515	511	466	31	37	
15	1	1	0	0	512	517	511	465	31	38	
0	1	1	0	0	511	517	511	465	31	37	
1	1	1	0	0	512	517	509	466	31	37	
2	1	1	0	0	512	516	509	465	31	37	
3	1	1	0	0	513	517	508	465	31	37	
4	1	1	0	0	512	516	508	466	31	37	
5	1	1	0	0	510	514	509	466	31	37	
6	1	1	0	0	509	511	508	466	31	37	
7	1	1	0	0	509	511	508	466	31	37	
8	1	1	0	0	510	507	507	466	31	37	
9	1	1	0	0	510	509	508	466	31	37	
10	1	1	0	0	508	508	507	465	31	37	
11	1	1	0	0	506	502	507	465	31	37	
12	1	1	0	0	507	507	507	465	31	37	
13	1	1	0	0	510	510	506	465	31	37	
14	1	1	0	0	508	514	509	465	31	37	
15	1	1	0	0	509	514	510	465	31	37	
0	1	1	0	0	510	515	509	466	31	37	
1	1	1	0	0	511	513	509	466	31	37	
2	1	1	0	0	512	516	510	466	31	37	
3	1	1	0	0	509	521	509	466	31	37	
4	1	1	0	0	512	519	509	465	31	37	
5	1	1	0	0	510	516	509	465	31	37	
6	1	1	0	0	511	512	510	465	31	37	
7	1	1	0	0	510	513	509	465	31	37	
8	1	1	0	0	510	513	510	465	31	37	
9	1	1	0	0	511	515	512	465	31	37	
10	1	1	0	0	510	516	510	466	31	37	
11	1	1	0	0	508	516	508	466	31	37	
12	1	1	0	0	511	518	509	466	31	37	
13	1	1	0	0	509	515	511	466	31	37	
14	1	1	0	0	509	513	510	465	31	37	
15	1	1	0	0	511	515	510	466	31	37	
0	1	1	0	0	508	508	511	465	31	37	
1	1	1	0	0	512	503	510	465	31	37	
2	1	1	0	0	511	509	512	465	31	37	
3	1	1	0	0	510	512	509	465	31	37	
4	1	1	0	0	511	515	508	465	31	37	
5	1	1	0	0	512	517	509	465	31	37	
6	1	1	0	0	511	515	509	466	31	37	
7	1	1	0	0	511	515	509	466	31	37	
8	1	1	0	0	511	508	509	466	31	37	
9	1	1	0	0	512	512	507	467	31	37	
10	1	1	0	0	507	519	508	467	31	37	
11	1	1	0	0	508	519	508	466	31	37	
12	1	1	0	0	511	518	509	466	31	37	
13	1	1	0	0	511	515	511	465	31	37	
14	1	1	0	0	510	510	509	465	31	37	
15	1	1	0	0	513	500	510	466	31	37	
0	1	1	0	0	510	508	510	466	31	37	
1	1	1	0	0	508	515	510	466	31	37	
2	1	1	0	0	509	518	510	465	31	37	
3	1	1	0	0	510	511	508	466	31	37	
4	1	1	0	0	513	514	508	466	31	37	
5	1	1	0	0	508	518	508	466	31	37	
6	1	1	0	0	511	521	508	466	31	37	
7	1	1	0	0	515	513	509	466	31	37	
8	1	1	0	0	512	499	511	466	31	37	
9	1	1	0	0	511	505	511	466	31	37	
10	1	1	0	0	509	511	508	467	31	37	
11	1	1	0	0	508	518	509	466	31	37	
12	1	1	0	0	507	516	510	466	30	37	
13	1	1	0	0	510	505	508	466	31	37	
14	1	1	0	0	511	510	508	467	31	37	
15	1	1	0	0	508	514	511	467	31	37	
0	1	1	0	0	507	515	510	467	31	37	
1	1	1	0	0	508	517	508	467	31	37	
2	1	1	0	0	508	518	510	466	31	37	
3	1	1	0	0	509	513	509	467	31	37	
4	1	1	0	0	513	510	510	466	31	37	
5	1	1	0	0	511	515	509	466	31	37	
6	1	1	0	0	510	516	509	466	31	37	
7	1	1	0	0	511	518	508	467	31	37	
8	1	1	0	0	512	518	511	467	31	37	
9	1	1	0	0	511	518	510	466	31	37	
10	1	1	0	0	511	519	509	466	31	37	
11	1	1	0	0	510	518	511	467	31	37	
12	1	1	0	0	511	518	508	467	31	37	
13	1	1	0	0	513	517	509	467	31	37	
14	1	1	0	0	514	515	510	467	31	37	
15	1	1	0	0	512	513	510	467	31	37	
0	1	1	0	0	509	513	507	466	31	37	
1	1	1	0	0	510	513	509	467	31	37	
2	1	1	0	0	510	512	510	467	31	37	
3	1	1	0	0	510	508	510	467	31	37	
4	1	1	0	0	508	497	510	467	31	37	
5	1	1	0	0	508	502	508	467	31	37	
6	1	1	0	0	507	513	505	466	31	37	
7	1	1	0	0	507	515	509	467	31	37	
8	1	1	0	0	507	516	508	467	31	37	
9	1	1	0	0	508	515	512	467	31	37	
10	1	1	0	0	511	515	511	466	31	37	
11	1	1	0	0	510	515	511	466	31	37	
12	1	1	0	0	511	516	510	466	31	37	
13	1	1	0	0	511	517	510	466	31	37	
14	1	1	0	0	511	510	510	466	31	37	
15	1	1	0	0	516	504	507	467	31	37	
0	1	1	0	0	514	511	510	467	31	37	
1	1	1	0	0	512	515	509	467	31	37	
2	1	1	0	0	513	514	509	467	31	37	
3	1	1	0	0	512	515	510	466	31	37	
4	1	1	0	0	508	519	509	466	31	37	
5	1	1	0	0	509	516	510	466	31	37	
6	1	1	0	0	508	520	510	466	31	37	
7	1	1	0	0	510	514	507	466	31	37	
8	1	1	0	0	511	510	510	466	31	37	
9	1	1	0	0	510	514	509	466	31	37	
10	1	1	0	0	509	518	509	466	31	37	
11	1	1	0	0	510	518	510	466	31	37	
12	1	1	0	0	513	515	510	466	31	37	
13	1	1	0	0	510	516	510	467	31	37	
14	1	1	0	0	512	514	508	467	31	37	
15	1	1	0	0	511	514	510	467	31	37	
0	1	1	0	0	510	499	510	466	31	37	
1	1	1	0	0	511	497	508	465	31	37	
2	1	1	0	0	509	508	508	465	31	37	
3	1	1	0	0	511	515	507	466	31	37	
4	1	1	0	0	508	518	508	466	31	37	
5	1	1	0	0	511	517	508	465	31	37	
6	1	1	0	0	511	508	509	466	31	37	
7	1	1	0	0	513	510	509	466	31	37	
8	1	1	0	0	512	513	508	466	31	37	
9	1	1	0	0	510	514	512	466	31	37	
10	1	1	0	0	509	518	507	466	31	37	
11	1	1	0	0	510	519	508	466	31	37	
12	1	1	0	0	510	523	510	466	31	37	
13	1	1	0	0	510	524	509	465	31	37	
14	1	1	0	0	510	521	508	465	31	37	
15	1	1	0	0	511	517	508	465	31	37	
0	1	1	0	0	513	494	512	465	31	37	
1	1	1	0	0	510	492	511	465	31	37	
2	1	1	0	0	508	502	505	466	31	37	
3	1	1	0	0	508	506	509	466	31	37	
4	1	1	0	0	505	515	507	466	31	37	
5	1	1	0	0	509	515	506	467	31	37	
6	1	1	0	0	509	516	508	466	31	37	
7	1	1	0	0	510	521	508	466	31	37	
8	1	1	0	0	512	520	509	466	31	37	
9	1	1	0	0	509	521	510	466	31	37	
10	1	1	0	0	512	518	509	465	31	37	
11	1	1	0	0	513	519	512	465	31	37	
12	1	1	0	0	511	516	510	465	31	37	
13	1	1	0	0	512	516	509	466	31	37	
14	1	1	0	0	508	514	511	467	31	37	
15	1	1	0	0	510	515	510	466	31	37	
0	1	1	0	0	511	518	510	466	31	37	
1	1	1	0	0	510	514	510	466	31	37	
2	1	1	0	0	510	512	509	466	31	37	
3	1	1	0	0	509	511	508	466	31	37	
4	1	1	0	0	507	513	509	466	31	37	
5	1	1	0	0	511	510	508	465	31	37	
6	1	1	0	0	508	508	507	465	31	37	
7	1	1	0	0	507	502	509	466	31	37	
8	1	1	0	0	509	498	509	465	31	37	
9	1	1	0	0	511	511	507	466	31	37	
10	1	1	0	0	507	512	508	465	31	37	
11	1	1	0	0	508	515	510	465	31	37	
12	1	1	0	0	512	517	510	466	31	37	
13	1	1	0	0	511	517	509	465	31	37	
14	1	1	0	0	510	516	511	466	31	37	
15	1	1	0	0	513	511	511	465	31	37	
0	1	1	0	0	511	515	512	465	31	37	
1	1	1	0	0	509	515	509	465	31	37	
2	1	1	0	0	511	515	510	465	31	37	
3	1	1	0	0	515	514	510	465	31	37	
4	1	1	0	0	513	515	508	466	31	37	
5	1	1	0	0	511	512	506	466	31	37	
6	1	1	0	0	510	516	508	466	31	37	
7	1	1	0	0	507	512	511	467	31	37	
8	1	1	0	0	510	513	510	466	31	37	
9	1	1	0	0	510	515	509	466	31	37	
10	1	1	0	0	512	515	509	465	31	37	
11	1	1	0	0	508	518	509	466	31	37	
12	1	1	0	0	509	519	509	466	31	37	
13	1	1	0	0	511	515	510	466	31	37	
14	1	1	0	0	512	514	510	465	31	37	
15	1	1	0	0	513	504	510	466	31	37	
0	1	1	0	0	511	505	510	465	31	37	
1	1	1	0	0	509	510	509	465	31	37	
2	1	1	0	0	510	511	508	466	31	37	
3	1	1	0	0	511	515	508	466	31	37	
4	1	1	0	0	508	516	511	466	31	37	
5	1	1	0	0	511	519	510	467	31	37	
6	1	1	0	0	510	516	509	466	31	37	
7	1	1	0	0	512	515	509	466	31	37	
8	1	1	0	0	510	513	510	465	31	37	
9	1	1	0	0	512	518	510	465	31	37	
10	1	1	0	0	510	519	508	465	31	37	
11	1	1	0	0	510	516	506	465	31	37	
12	1	1	0	0	512	509	509	465	31	37	
13	1	1	0	0	511	510	510	466	31	37	
14	1	1	0	0	509	511	509	466	31	37	
15	1	1	0	0	509	514	509	467	31	37	
0	1	1	0	0	509	511	507	466	31	37	
1	1	1	0	0	510	511	509	467	31	37	
2	1	1	0	0	513	515	508	466	31	37	
3	1	1	0	0	508	511	508	465	31	37	
4	1	1	0	0	511	500	510	465	31	37	
5	1	1	0	0	511	505	509	465	31	37	
6	1	1	0	0	511	510	508	466	31	37	
7	1	1	0	0	506	510	511	466	31	37	
8	1	1	0	0	509	512	509	465	31	37	
9	1	1	0	0	508	517	509	466	31	37	
10	1	1	0	0	509	519	508	466	31	37	
11	1	1	0	0	510	516	506	466	31	37	
12	1	1	0	0	508	519	510	466	31	37	
13	1	1	0	0	510	519	510	466	31	37	
14	1	1	0	0	512	515	513	466	31	37	
15	1	1	0	0	513	518	510	466	31	37	
0	1	1	0	0	510	521	510	466	31	37	
1	1	1	0	0	508	520	511	465	31	37	
2	1	1	0	0	511	519	510	466	31	37	
3	1	1	0	0	512	518	509	467	31	37	
4	1	1	0	0	510	520	508	467	31	37	
5	1	1	0	0	512	515	509	466	31	37	
6	1	1	0	0	511	501	510	467	31	37	
7	1	1	0	0	511	491	509	467	31	37	
8	1	1	0	0	511	502	508	466	31	37	
9	1	1	0	0	507	511	507	466	31	37	
10	1	1	0	0	509	512	508	465	31	37	
11	1	1	0	0	510	512	510	466	31	37	
12	1	1	0	0	510	512	510	466	31	37	
13	1	1	0	0	509	512	508	466	31	37	
14	1	1	0	0	510	504	509	466	31	37	
15	1	1	0	0	511	512	511	466	31	37	
0	1	1	0	0	509	519	510	466	31	37	
1	1	1	0	0	507	519	508	467	31	37	
2	1	1	0	0	508	517	508	467	31	37	
3	1	1	0	0	507	518	509	466	31	37	
4	1	1	0	0	510	518	508	465	31	37	
5	1	1	0	0	511	517	508	465	31	37	
6	1	1	0	0	511	517	512	465	31	37	
7	1	1	0	0	511	518	511	466	31	37	
8	1	1	0	0	508	519	510	466	31	37	
9	1	1	0	0	508	519	510	467	31	37	
10	1	1	0	0	515	512	512	466	31	37	
11	1	1	0	0	510	510	508	467	31	37	
12	1	1	0	0	510	508	509	466	31	37	
13	1	1	0	0	512	511	509	467	31	37	
14	1	1	0	0	511	510	510	467	31	37	
15	1	1	0	0	512	504	510	467	31	37	
0	1	1	0	0	511	512	509	466	31	37	
1	1	1	0	0	510	513	508	466	31	37	
2	1	1	0	0	509	514	512	466	31	37	
3	1	1	0	0	511	517	506	466	31	37	
4	1	1	0	0	512	517	510	466	31	37	
5	1	1	0	0	512	518	509	466	31	37	
6	1	1	0	0	512	518	510	466	31	37	
7	1	1	0	0	510	514	509	466	31	37	
8	1	1	0	0	512	503	509	466	31	37	
9	1	1	0	0	509	509	508	466	31	37	
10	1	1	0	0	509	515	509	465	31	37	
11	1	1	0	0	509	515	509	465	31	37	
12	1	1	0	0	509	515	507	466	31	37	
13	1	1	0	0	510	510	508	465	31	37	
14	1	1	0	0	511	501	509	465	31	37	
15	1	1	0	0	510	503	508	465	31	37	
0	1	1	0	0	510	513	507	465	31	37	
1	1	1	0	0	511	517	506	465	31	37	
2	1	1	0	0	510	519	511	465	31	37	
3	1	1	0	0	510	523	509	465	31	37	
4	1	1	0	0	510	520	510	465	31	37	
5	1	1	0	0	511	519	509	465	31	37	
6	1	1	0	0	509	518	511	466	31	37	
7	1	1	0	0	513	514	510	465	31	37	
8	1	1	0	0	511	513	508	464	31	37	
9	1	1	0	0	512	507	510	465	31	37	
10	1	1	0	0	512	506	511	464	31	37	
11	1	1	0	0	511	510	509	465	31	37	
12	1	1	0	0	511	513	507	465	31	37	
13	1	1	0	0	508	515	509	465	31	37	
14	1	1	0	0	508	514	510	465	31	37	
15	1	1	0	0	511	515	510	466	31	37	
0	1	1	0	0	511	516	509	466	31	37	
1	1	1	0	0	513	516	507	466	31	37	
2	1	1	0	0	512	518	509	465	31	37	
3	1	1	0	0	511	517	509	465	31	37	
4	1	1	0	0	508	514	509	465	31	37	
5	1	1	0	0	508	512	511	465	31	37	
6	1	1	0	0	512	515	508	465	31	37	
7	1	1	0	0	512	509	510	465	31	37	
8	1	1	0	0	510	500	511	465	31	37	
9	1	1	0	0	509	510	511	465	31	37	
10	1	1	0	0	511	513	510	465	31	37	
11	1	1	0	0	510	513	509	466	31	37	
12	1	1	0	0	512	515	508	465	31	37	
13	1	1	0	0	512	515	508	465	31	37	
14	1	1	0	0	510	515	509	465	31	37	
15	1	1	0	0	511	511	510	465	31	37	
0	1	1	0	0	509	514	508	465	31	37	
1	1	1	0	0	508	519	507	465	31	37	
2	1	1	0	0	511	516	508	465	31	37	
3	1	1	0	0	511	514	508	465	31	37	
4	1	1	0	0	511	511	510	465	31	37	
5	1	1	0	0	511	511	507	465	31	37	
6	1	1	0	0	511	512	510	465	31	37	
7	1	1	0	0	509	513	508	465	31	37	
8	1	1	0	0	511	513	509	465	31	37	
9	1	1	0	0	510	515	510	465	31	37	
10	1	1	0	0	510	519	507	465	31	37	
11	1	1	0	0	511	515	509	465	31	37	
12	1	1	0	0	510	516	510	465	31	37	
13	1	1	0	0	512	516	510	465	31	37	
14	1	1	0	0	510	512	511	466	31	37	
15	1	1	0	0	513	509	510	465	31	37	
0	1	1	0	0	513	504	508	465	31	37	
1	1	1	0	0	509	506	507	466	31	37	
2	1	1	0	0	508	508	507	465	31	37	
3	1	1	0	0	504	512	508	466	31	37	
4	1	1	0	0	505	515	508	465	31	37	
5	1	1	0	0	508	518	508	465	31	37	
6	1	1	0	0	507	517	507	465	31	37	
7	1	1	0	0	508	519	508	465	31	37	
8	1	1	0	0	508	521	508	465	31	37	
9	1	1	0	0	510	511	507	465	31	37	
10	1	1	0	0	512	510	511	465	31	37	
11	1	1	0	0	509	516	508	465	31	37	
12	1	1	0	0	511	508	511	465	31	37	
13	1	1	0	0	515	489	512	465	31	37	
14	1	1	0	0	512	499	509	466	31	37	
15	1	1	0	0	511	510	509	466	31	37	
0	1	1	0	0	508	516	508	466	31	37	
1	1	1	0	0	510	516	508	465	31	37	
2	1	1	0	0	509	518	510	465	31	37	
3	1	1	0	0	511	519	510	465	31	37	
4	1	1	0	0	509	521	509	465	31	37	
5	1	1	0	0	510	520	509	465	31	37	
6	1	1	0	0	512	519	509	466	31	37	
7	1	1	0	0	511	514	511	466	31	37	
8	1	1	0	0	510	516	509	465	31	37	
9	1	1	0	0	511	515	509	466	31	37	
10	1	1	0	0	510	518	511	465	31	37	
11	1	1	0	0	508	516	510	466	31	37	
12	1	1	0	0	510	511	512	466	31	37	
13	1	1	0	0	510	516	509	466	31	37	
14	1	1	0	0	511	515	510	465	31	37	
15	1	1	0	0	511	515	510	465	31	37	
0	1	1	0	0	510	515	509	465	31	37	
1	1	1	0	0	510	518	508	465	31	37	
2	1	1	0	0	511	520	509	465	31	37	
3	1	1	0	0	514	509	511	466	31	37	
4	1	1	0	0	512	506	511	466	31	37	
5	1	1	0	0	511	504	508	466	31	37	
6	1	1	0	0	510	506	508	467	31	37	
7	1	1	0	0	511	506	507	466	31	37	
8	1	1	0	0	513	498	508	466	31	37	
9	1	1	0	0	507	508	508	467	31	37	
10	1	1	0	0	506	518	507	465	31	37	
11	1	1	0	0	506	520	508	466	31	37	
12	1	1	0	0	507	518	508	465	31	37	
13	1	1	0	0	509	519	508	466	31	37	
14	1	1	0	0	509	515	510	465	31	37	
15	1	1	0	0	508	515	510	466	31	37	
0	1	1	0	0	510	517	509	466	31	37	
1	1	1	0	0	510	518	510	466	31	37	
2	1	1	0	0	513	513	510	465	31	37	
3	1	1	0	0	513	513	509	466	31	37	
4	1	1	0	0	511	515	509	466	31	37	
5	1	1	0	0	510	514	509	466	31	37	
6	1	1	0	0	512	512	510	465	31	37	
7	1	1	0	0	510	514	510	465	31	37	
8	1	1	0	0	512	512	511	465	31	37	
9	1	1	0	0	513	514	510	465	31	37	
10	1	1	0	0	511	513	510	465	31	37	
11	1	1	0	0	512	512	507	465	31	37	
12	1	1	0	0	507	515	511	466	31	37	
13	1	1	0	0	507	513	508	465	31	37	
14	1	1	0	0	507	512	508	466	31	37	
15	1	1	0	0	509	512	510	467	31	37	
0	1	1	0	0	508	511	508	466	31	37	
1	1	1	0	0	507	511	511	466	31	37	
2	1	1	0	0	507	513	508	465	31	37	
3	1	1	0	0	510	514	510	465	31	37	
4	1	1	0	0	511	514	510	465	31	37	
5	1	1	0	0	512	518	508	466	31	37	
6	1	1	0	0	512	519	510	465	31	37	
7	1	1	0	0	510	518	509	465	31	37	
8	1	1	0	0	511	513	510	465	31	37	
9	1	1	0	0	511	512	508	466	31	37	
10	1	1	0	0	511	508	508	466	31	37	
11	1	1	0	0	512	510	511	465	31	37	
12	1	1	0	0	511	517	507	466	31	37	
13	1	1	0	0	511	519	508	466	31	37	
14	1	1	0	0	511	520	508	465	31	37	
15	1	1	0	0	512	518	511	465	31	37	
0	1	1	0	0	513	508	511	465	31	37	
1	1	1	0	0	511	499	510	465	31	37	
2	1	1	0	0	511	506	508	465	31	37	
3	1	1	0	0	509	506	510	466	31	37	
4	1	1	0	0	513	497	510	465	31	37	
5	1	1	0	0	511	502	508	465	31	37	
6	1	1	0	0	505	508	508	466	31	37	
7	1	1	0	0	504	517	506	466	31	37	
8	1	1	0	0	505	519	507	466	31	37	
9	1	1	0	0	509	524	508	465	31	37	
10	1	1	0	0	509	514	511	465	31	37	
11	1	1	0	0	510	513	511	465	31	37	
12	1	1	0	0	513	520	510	466	31	37	
13	1	1	0	0	511	519	509	466	31	37	
14	1	1	0	0	511	515	508	466	31	37	
15	1	1	0	0	512	516	508	466	31	37	
0	1	1	0	0	511	517	511	467	31	37	
1	1	1	0	0	511	516	510	467	31	37	
2	1	1	0	0	509	516	509	467	31	37	
3	1	1	0	0	510	513	509	467	31	37	
4	1	1	0	0	511	510	508	466	31	37	
5	1	1	0	0	511	510	508	465	31	37	
6	1	1	0	0	510	513	510	466	31	37	
7	1	1	0	0	509	514	511	465	31	37	
8	1	1	0	0	511	514	507	466	31	37	
9	1	1	0	0	511	513	511	466	31	37	
10	1	1	0	0	508	512	510	466	31	37	
11	1	1	0	0	510	514	509	466	31	37	
12	1	1	0	0	509	518	509	467	31	37	
13	1	1	0	0	510	519	507	467	31	37	
14	1	1	0	0	513	517	508	466	31	37	
15	1	1	0	0	512	517	510	466	31	37	
0	1	1	0	0	511	515	509	465	31	37	
1	1	1	0	0	511	511	512	466	31	37	
2	1	1	0	0	512	505	512	466	31	37	
3	1	1	0	0	514	510	509	466	31	37	
4	1	1	0	0	510	511	508	466	31	37	
5	1	1	0	0	510	513	509	467	31	37	
6	1	1	0	0	509	513	511	467	31	37	
7	1	1	0	0	511	513	509	467	31	37	
8	1	1	0	0	509	516	509	466	31	37	
9	1	1	0	0	511	521	506	466	31	37	
10	1	1	0	0	510	518	507	467	31	37	
11	1	1	0	0	509	513	507	466	31	37	
12	1	1	0	0	512	512	508	466	31	37	
13	1	1	0	0	508	517	508	466	31	37	
14	1	1	0	0	511	516	509	466	31	37	
15	1	1	0	0	510	504	508	467	31	37	
0	1	1	0	0	508	499	510	467	31	37	
1	1	1	0	0	511	499	513	467	31	37	
2	1	1	0	0	509	504	508	467	31	37	
3	1	1	0	0	508	512	508	467	31	37	
4	1	1	0	0	510	519	508	467	31	37	
5	1	1	0	0	508	518	508	466	31	37	
6	1	1	0	0	509	519	509	466	31	37	
7	1	1	0	0	510	519	510	466	31	37	
8	1	1	0	0	513	515	510	466	31	37	
9	1	1	0	0	512	505	510	466	31	37	
10	1	1	0	0	512	512	510	465	31	37	
11	1	1	0	0	512	513	511	466	31	37	
12	1	1	0	0	509	516	511	466	31	37	
13	1	1	0	0	512	518	508	466	31	37	
14	1	1	0	0	512	519	510	467	31	37	
15	1	1	0	0	509	520	510	467	31	37	
0	1	1	0	0	510	519	508	466	31	37	
1	1	1	0	0	509	518	509	466	31	37	
2	1	1	0	0	510	516	511	466	31	37	
3	1	1	0	0	511	515	508	466	31	37	
4	1	1	0	0	510	512	509	466	31	37	
5	1	1	0	0	508	513	510	466	31	37	
6	1	1	0	0	512	513	510	466	31	37	
7	1	1	0	0	511	514	510	467	31	37	
8	1	1	0	0	512	504	510	466	31	37	
9	1	1	0	0	510	513	508	467	31	37	
10	1	1	0	0	511	517	506	467	31	37	
11	1	1	0	0	509	510	508	467	31	37	
12	1	1	0	0	511	504	512	467	31	37	
13	1	1	0	0	510	511	509	466	31	37	
14	1	1	0	0	511	515	511	465	31	37	
15	1	1	0	0	509	518	507	466	31	37	
0	1	1	0	0	509	519	510	466	31	37	
1	1	1	0	0	511	514	508	466	31	37	
2	1	1	0	0	509	511	511	466	31	37	
3	1	1	0	0	507	510	509	466	31	37	
4	1	1	0	0	507	502	511	466	31	37	
5	1	1	0	0	511	501	511	466	31	37	
6	1	1	0	0	507	512	509	466	31	37	
7	1	1	0	0	510	515	507	465	31	37	
8	1	1	0	0	512	516	509	466	31	37	
9	1	1	0	0	512	517	507	465	31	37	
10	1	1	0	0	512	519	507	464	31	37	
11	1	1	0	0	511	519	507	465	31	37	
12	1	1	0	0	508	518	508	466	31	37	
13	1	1	0	0	508	515	511	465	31	37	
14	1	1	0	0	510	511	511	466	31	37	
15	1	1	0	0	510	508	510	465	31	37	
0	1	1	0	0	510	510	508	466	31	37	
1	1	1	0	0	511	515	507	466	31	37	
2	1	1	0	0	512	517	508	466	31	37	
3	1	1	0	0	511	516	510	465	31	37	
4	1	1	0	0	513	517	510	465	31	37	
5	1	1	0	0	511	518	508	465	31	37	
6	1	1	0	0	511	518	510	465	31	37	
7	1	1	0	0	509	516	509	465	31	37	
8	1	1	0	0	509	515	509	466	31	37	
9	1	1	0	0	509	509	509	466	31	37	
10	1	1	0	0	512	504	510	465	31	37	
11	1	1	0	0	511	508	510	466	31	37	
12	1	1	0	0	510	508	508	467	31	37	
13	1	1	0	0	509	513	508	466	31	37	
14	1	1	0	0	508	513	509	466	31	37	
15	1	1	0	0	508	515	509	465	31	37	
0	1	1	0	0	512	518	510	466	31	37	
1	1	1	0	0	511	520	508	464	31	37	
2	1	1	0	0	512	519	509	465	31	37	
3	1	1	0	0	511	513	510	465	31	37	
4	1	1	0	0	511	515	509	465	31	37	
5	1	1	0	0	511	514	508	466	31	37	
6	1	1	0	0	509	515	510	467	31	37	
7	1	1	0	0	509	512	509	467	31	37	
8	1	1	0	0	508	513	511	467	31	37	
9	1	1	0	0	510	515	512	466	31	37	
10	1	1	0	0	510	514	508	466	31	37	
11	1	1	0	0	511	515	509	466	31	37	
12	1	1	0	0	514	513	507	466	31	37	
13	1	1	0	0	509	515	510	465	31	37	
14	1	1	0	0	510	512	509	465	31	37	
15	1	1	0	0	512	512	509	466	31	37	
0	1	1	0	0	511	512	507	465	31	37	
1	1	1	0	0	509	509	508	466	31	37	
2	1	1	0	0	512	511	510	466	31	37	
3	1	1	0	0	512	509	511	466	31	37	
4	1	1	0	0	507	512	511	467	31	37	
5	1	1	0	0	508	511	509	467	31	37	
6	1	1	0	0	509	511	510	467	31	37	
7	1	1	0	0	511	516	510	466	31	37	
8	1	1	0	0	511	517	510	465	31	37	
9	1	1	0	0	511	519	508	466	31	37	
10	1	1	0	0	509	517	508	466	31	37	
11	1	1	0	0	511	515	508	466	31	37	
12	1	1	0	0	511	518	510	467	31	37	
13	1	1	0	0	510	519	509	466	31	37	
14	1	1	0	0	509	512	511	467	31	37	
15	1	1	0	0	510	511	510	467	31	37	
0	1	1	0	0	511	512	509	467	31	37	
1	1	1	0	0	511	515	509	467	31	37	
2	1	1	0	0	511	507	508	466	31	37	
3	1	1	0	0	511	506	510	466	31	37	
4	1	1	0	0	508	502	510	466	31	37	
5	1	1	0	0	510	506	509	466	31	37	
6	1	1	0	0	510	516	508	466	31	37	
7	1	1	0	0	511	518	508	466	31	37	
8	1	1	0	0	510	520	509	467	31	37	
9	1	1	0	0	511	518	508	467	31	37	
10	1	1	0	0	511	516	510	467	31	37	
11	1	1	0	0	513	515	510	467	31	37	
12	1	1	0	0	511	518	509	467	31	37	
13	1	1	0	0	512	515	509	467	31	37	
14	1	1	0	0	512	503	510	467	31	37	
15	1	1	0	0	511	500	512	466	31	37	
0	1	1	0	0	510	511	509	466	31	37	
1	1	1	0	0	505	516	508	467	31	37	
2	1	1	0	0	508	520	511	466	31	37	
3	1	1	0	0	509	522	511	466	31	37	
4	1	1	0	0	510	519	509	467	31	37	
5	1	1	0	0	511	516	510	467	31	37	
6	1	1	0	0	511	519	509	467	31	37	
7	1	1	0	0	509	518	508	467	31	37	
8	1	1	0	0	509	515	509	467	31	37	
9	1	1	0	0	511	507	508	466	31	37	
10	1	1	0	0	509	505	509	465	31	37	
11	1	1	0	0	509	504	507	466	31	37	
12	1	1	0	0	511	498	509	465	31	37	
13	1	1	0	0	512	503	508	467	31	37	
14	1	1	0	0	511	512	507	466	31	37	
15	1	1	0	0	512	519	510	467	31	37	
0	1	1	0	0	512	518	508	467	31	37	
1	1	1	0	0	511	519	509	467	31	37	
2	1	1	0	0	510	519	507	466	31	37	
3	1	1	0	0	511	513	510	467	31	37	
4	1	1	0	0	510	512	509	467	31	37	
5	1	1	0	0	511	515	512	466	31	37	
6	1	1	0	0	509	519	510	466	31	37	
7	1	1	0	0	509	517	510	467	31	37	
8	1	1	0	0	508	516	510	466	31	37	
9	1	1	0	0	510	519	507	467	31	37	
10	1	1	0	0	511	519	508	467	31	37	
11	1	1	0	0	509	514	509	467	31	37	
12	1	1	0	0	510	508	510	467	31	37	
13	1	1	0	0	509	507	510	468	31	37	
14	1	1	0	0	507	511	511	467	31	37	
15	1	1	0	0	510	511	511	467	31	37	
0	1	1	0	0	508	515	508	467	31	37	
1	1	1	0	0	509	518	508	467	31	37	
2	1	1	0	0	512	516	510	466	31	37	
3	1	1	0	0	511	517	511	467	31	37	
4	1	1	0	0	508	518	510	466	31	37	
5	1	1	0	0	511	515	509	467	31	37	
6	1	1	0	0	510	510	509	467	31	37	
7	1	1	0	0	512	513	508	467	31	37	
8	1	1	0	0	510	516	508	467	31	37	
9	1	1	0	0	507	511	509	466	31	37	
10	1	1	0	0	511	504	510	466	31	37	
11	1	1	0	0	512	509	507	467	31	37	
12	1	1	0	0	510	514	509	467	31	37	
13	1	1	0	0	510	513	508	466	31	37	
14	1	1	0	0	511	509	509	466	31	37	
15	1	1	0	0	510	506	509	467	31	37	
0	1	1	0	0	511	511	510	466	31	37	
1	1	1	0	0	510	514	511	467	31	37	
2	1	1	0	0	512	516	511	467	31	37	
3	1	1	0	0	511	515	510	466	31	37	
4	1	1	0	0	511	517	509	467	31	37	
5	1	1	0	0	511	516	508	467	31	37	
6	1	1	0	0	512	516	509	467	31	37	
7	1	1	0	0	514	517	509	466	31	37	
8	1	1	0	0	510	516	508	465	31	37	
9	1	1	0	0	511	515	510	465	31	37	
10	1	1	0	0	508	515	509	465	31	37	
11	1	1	0	0	509	515	511	467	31	37	
12	1	1	0	0	512	515	511	466	31	37	
13	1	1	0	0	513	509	509	466	31	37	
14	1	1	0	0	510	504	509	467	31	37	
15	1	1	0	0	512	510	509	467	31	37	
0	1	1	0	0	508	513	508	467	31	37	
1	1	1	0	0	510	513	509	465	31	37	
2	1	1	0	0	510	512	510	465	31	37	
3	1	1	0	0	512	512	509	466	31	37	
4	1	1	0	0	511	509	507	465	31	37	
5	1	1	0	0	510	510	508	465	31	37	
6	1	1	0	0	509	514	508	466	31	37	
7	1	1	0	0	507	515	508	466	31	37	
8	1	1	0	0	510	516	508	465	31	37	
9	1	1	0	0	511	517	508	465	31	37	
10	1	1	0	0	512	512	510	466	31	37	
11	1	1	0	0	509	514	512	466	31	37	
12	1	1	0	0	512	513	509	465	31	37	
13	1	1	0	0	511	515	508	466	31	37	
14	1	1	0	0	511	515	510	465	31	37	
15	1	1	0	0	511	515	510	465	31	37	
0	1	1	0	0	512	517	509	465	31	37	
1	1	1	0	0	510	517	508	464	31	37	
2	1	1	0	0	509	516	508	465	31	37	
3	1	1	0	0	508	512	511	465	31	37	
4	1	1	0	0	511	513	509	466	31	37	
5	1	1	0	0	509	516	509	465	31	37	
6	1	1	0	0	509	511	508	465	31	37	
7	1	1	0	0	507	510	507	465	31	37	
8	1	1	0	0	511	511	508	465	31	37	
9	1	1	0	0	508	515	507	465	31	37	
10	1	1	0	0	511	511	510	464	31	37	
11	1	1	0	0	510	515	509	464	31	37	
12	1	1	0	0	510	515	509	464	31	37	
13	1	1	0	0	510	516	510	465	31	37	
14	1	1	0	0	512	514	508	465	31	37	
15	1	1	0	0	512	508	510	465	31	37	
0	1	1	0	0	510	506	510	466	31	37	
1	1	1	0	0	509	512	508	466	31	37	
2	1	1	0	0	508	514	511	466	31	37	
3	1	1	0	0	513	520	507	465	31	37	
4	1	1	0	0	511	527	510	465	31	37	
5	1	1	0	0	509	524	510	464	31	37	
6	1	1	0	0	512	521	511	465	31	37	
7	1	1	0	0	511	513	514	465	31	37	
8	1	1	0	0	512	495	510	465	31	37	
9	1	1	0	0	515	498	511	465	31	37	
10	1	1	0	0	507	511	508	464	31	37	
11	1	1	0	0	510	500	511	466	31	37	
12	1	1	0	0	509	505	511	466	31	37	
13	1	1	0	0	511	513	507	465	31	37	
14	1	1	0	0	509	512	509	466	31	37	
15	1	1	0	0	511	512	508	465	31	37	
0	1	1	0	0	509	516	509	465	31	37	
1	1	1	0	0	509	521	508	465	31	37	
2	1	1	0	0	509	512	508	465	31	37	
3	1	1	0	0	512	511	510	465	31	37	
4	1	1	0	0	513	515	509	465	31	37	
5	1	1	0	0	510	518	509	465	31	37	
6	1	1	0	0	509	515	509	466	31	37	
7	1	1	0	0	511	517	510	466	31	37	
8	1	1	0	0	507	515	509	466	31	37	
9	1	1	0	0	512	512	508	466	31	37	
10	1	1	0	0	510	515	509	466	31	37	
11	1	1	0	0	508	514	508	466	31	37	
12	1	1	0	0	513	511	507	466	31	37	
13	1	1	0	0	511	512	509	465	31	37	
14	1	1	0	0	510	519	508	465	31	37	
15	1	1	0	0	509	521	509	466	31	37	
0	1	1	0	0	511	520	512	466	31	37	
1	1	1	0	0	508	513	511	465	31	37	
2	1	1	0	0	512	506	510	465	31	37	
3	1	1	0	0	512	512	508	466	31	37	
4	1	1	0	0	513	511	510	466	31	37	
5	1	1	0	0	508	515	512	466	31	37	
6	1	1	0	0	512	515	511	466	31	37	
7	1	1	0	0	512	516	510	466	31	37	
8	1	1	0	0	511	518	507	465	31	37	
9	1	1	0	0	510	514	511	465	31	37	
10	1	1	0	0	511	514	510	465	31	37	
11	1	1	0	0	512	515	508	465	31	37	
12	1	1	0	0	510	513	510	465	31	37	
13	1	1	0	0	510	512	508	465	31	37	
14	1	1	0	0	508	513	508	465	31	37	
15	1	1	0	0	510	513	510	465	31	37	
0	1	1	0	0	508	513	508	466	31	37	
1	1	1	0	0	507	513	510	466	31	37	
2	1	1	0	0	510	511	509	465	31	37	
3	1	1	0	0	510	512	509	465	31	37	
4	1	1	0	0	510	512	510	465	31	37	
5	1	1	0	0	511	514	510	464	31	37	
6	1	1	0	0	509	515	511	465	31	37	
7	1	1	0	0	511	514	509	465	31	37	
8	1	1	0	0	511	515	508	465	31	37	
9	1	1	0	0	511	516	508	465	31	37	
10	1	1	0	0	511	511	507	465	31	37	
11	1	1	0	0	512	508	509	464	31	37	
12	1	1	0	0	511	511	508	465	31	37	
13	1	1	0	0	512	515	509	466	31	37	
14	1	1	0	0	510	513	510	466	31	37	
15	1	1	0	0	511	513	508	465	31	37	
0	1	1	0	0	508	512	510	465	31	37	
1	1	1	0	0	507	512	508	464	31	37	
2	1	1	0	0	510	514	508	465	31	37	
3	1	1	0	0	509	515	508	465	31	37	
4	1	1	0	0	510	511	509	465	31	37	
5	1	1	0	0	510	508	510	465	31	37	
6	1	1	0	0	511	509	509	465	31	37	
7	1	1	0	0	508	511	510	465	31	37	
8	1	1	0	0	508	515	510	465	31	37	
9	1	1	0	0	508	516	509	466	31	37	
10	1	1	0	0	513	515	510	465	31	37	
11	1	1	0	0	513	515	508	465	31	37	
12	1	1	0	0	511	515	511	465	31	37	
13	1	1	0	0	510	517	511	465	31	37	
14	1	1	0	0	511	519	510	465	31	37	
15	1	1	0	0	510	511	511	465	31	37	
0	1	1	0	0	511	515	511	464	31	37	
1	1	1	0	0	509	521	508	465	31	37	
2	1	1	0	0	510	515	510	465	31	37	
3	1	1	0	0	510	515	509	466	31	37	
4	1	1	0	0	514	504	508	466	31	37	
5	1	1	0	0	511	497	509	466	31	37	
6	1	1	0	0	508	504	506	466	31	37	
7	1	1	0	0	509	512	508	466	31	37	
8	1	1	0	0	506	517	508	465	31	37	
9	1	1	0	0	507	519	508	465	31	37	
10	1	1	0	0	508	521	508	464	31	37	
11	1	1	0	0	512	520	508	465	31	37	
12	1	1	0	0	512	519	508	465	31	37	
13	1	1	0	0	514	512	509	465	31	37	
14	1	1	0	0	513	505	510	466	31	37	
15	1	1	0	0	513	504	509	465	31	37	
0	1	1	0	0	510	508	509	466	31	37	
1	1	1	0	0	510	506	510	466	31	37	
2	1	1	0	0	507	513	507	466	31	37	
3	1	1	0	0	509	518	508	465	31	37	
4	1	1	0	0	510	516	509	466	31	37	
5	1	1	0	0	510	517	509	465	31	37	
6	1	1	0	0	508	516	508	465	31	37	
7	1	1	0	0	510	515	509	465	31	37	
8	1	1	0	0	510	516	509	465	31	37	
9	1	1	0	0	512	515	510	465	31	37	
10	1	1	0	0	511	517	510	466	31	37	
11	1	1	0	0	510	518	507	466	31	37	
12	1	1	0	0	512	515	505	467	31	37	
13	1	1	0	0	512	513	510	465	31	37	
14	1	1	0	0	510	512	510	466	31	37	
15	1	1	0	0	507	510	511	466	31	37	
0	1	1	0	0	508	509	510	466	31	37	
1	1	1	0	0	511	509	508	465	31	37	
2	1	1	0	0	510	513	509	465	31	37	
3	1	1	0	0	511	513	509	466	31	37	
4	1	1	0	0	509	517	509	465	31	37	
5	1	1	0	0	508	517	510	465	31	37	
6	1	1	0	0	511	517	510	466	31	37	
7	1	1	0	0	512	515	510	465	31	37	
8	1	1	0	0	512	517	512	466	31	37	
9	1	1	0	0	511	515	510	466	31	37	
10	1	1	0	0	513	508	511	465	31	37	
11	1	1	0	0	515	503	509	466	31	37	
12	1	1	0	0	513	514	509	465	31	37	
13	1	1	0	0	507	519	509	465	31	37	
14	1	1	0	0	508	516	508	466	31	37	
15	1	1	0	0	510	518	509	465	31	37	
0	1	1	0	0	507	516	508	465	31	37	
1	1	1	0	0	510	516	510	466	31	37	
2	1	1	0	0	511	501	508	466	31	37	
3	1	1	0	0	511	487	511	466	31	37	
4	1	1	0	0	510	502	508	466	31	37	
5	1	1	0	0	508	512	506	467	31	37	
6	1	1	0	0	510	514	508	466	31	37	
7	1	1	0	0	509	517	508	465	31	37	
8	1	1	0	0	508	515	509	467	31	37	
9	1	1	0	0	508	516	506	465	31	37	
10	1	1	0	0	507	512	510	466	31	37	
11	1	1	0	0	511	513	510	466	31	37	
12	1	1	0	0	509	517	508	466	31	37	
13	1	1	0	0	510	519	509	466	31	37	
14	1	1	0	0	511	518	508	467	31	37	
15	1	1	0	0	512	520	508	467	31	37	
0	1	1	0	0	511	519	508	466	31	37	
1	1	1	0	0	514	516	509	466	31	37	
2	1	1	0	0	513	515	512	465	31	37	
3	1	1	0	0	508	515	512	465	31	37	
4	1	1	0	0	511	512	508	466	31	37	
5	1	1	0	0	511	511	508	466	31	37	
6	1	1	0	0	511	510	508	466	31	37	
7	1	1	0	0	512	510	511	465	31	37	
8	1	1	0	0	507	515	508	467	31	37	
9	1	1	0	0	510	508	510	466	31	37	
10	1	1	0	0	510	511	508	467	31	37	
11	1	1	0	0	508	514	509	467	31	37	
12	1	1	0	0	509	515	511	466	31	37	
13	1	1	0	0	509	516	512	466	31	37	
14	1	1	0	0	512	511	510	466	31	37	
15	1	1	0	0	514	510	512	466	31	37	
0	1	1	0	0	513	514	509	466	31	37	
1	1	1	0	0	510	517	507	466	31	37	
2	1	1	0	0	512	515	508	465	31	37	
3	1	1	0	0	512	513	509	467	31	37	
4	1	1	0	0	511	509	508	467	31	37	
5	1	1	0	0	508	510	509	467	31	37	
6	1	1	0	0	509	512	509	466	31	37	
7	1	1	0	0	512	515	509	466	31	37	
8	1	1	0	0	507	515	508	466	31	37	
9	1	1	0	0	510	518	506	466	31	37	
10	1	1	0	0	507	523	508	465	31	37	
11	1	1	0	0	508	519	508	466	31	37	
12	1	1	0	0	510	512	513	467	31	37	
13	1	1	0	0	509	511	510	466	31	37	
14	1	1	0	0	510	512	510	467	31	37	
15	1	1	0	0	510	510	510	467	31	37	
0	1	1	0	0	509	504	510	468	31	37	
1	1	1	0	0	508	510	509	467	31	37	
2	1	1	0	0	511	511	511	466	31	37	
3	1	1	0	0	512	512	510	466	31	37	
4	1	1	0	0	511	510	510	466	31	37	
5	1	1	0	0	511	506	508	466	31	37	
6	1	1	0	0	511	510	510	465	31	37	
7	1	1	0	0	511	514	507	466	31	37	
8	1	1	0	0	511	516	508	467	31	37	
9	1	1	0	0	512	517	509	467	31	37	
10	1	1	0	0	509	517	511	467	31	37	
11	1	1	0	0	511	517	508	467	31	37	
12	1	1	0	0	509	516	510	467	31	37	
13	1	1	0	0	512	515	506	467	31	37	
14	1	1	0	0	508	513	508	467	31	37	
15	1	1	0	0	510	514	509	467	31	37	
0	1	1	0	0	509	512	509	467	31	37	
1	1	1	0	0	510	517	508	467	31	37	
2	1	1	0	0	510	517	510	467	31	37	
3	1	1	0	0	509	517	509	467	31	37	
4	1	1	0	0	510	514	510	467	31	37	
5	1	1	0	0	512	515	511	467	31	37	
6	1	1	0	0	513	513	511	468	31	37	
7	1	1	0	0	511	517	510	467	31	37	
8	1	1	0	0	511	505	510	467	31	37	
9	1	1	0	0	511	503	509	466	31	37	
10	1	1	0	0	506	505	507	467	31	37	
11	1	1	0	0	509	511	508	466	31	37	
12	1	1	0	0	510	510	510	467	31	37	
13	1	1	0	0	508	517	507	466	31	37	
14	1	1	0	0	510	519	509	467	31	37	
15	1	1	0	0	509	516	509	467	31	37	
0	1	1	0	0	511	514	510	467	31	37	
1	1	1	0	0	510	513	510	467	31	37	
2	1	1	0	0	511	504	510	467	31	37	
3	1	1	0	0	508	506	510	467	31	37	
4	1	1	0	0	507	516	510	467	31	37	
5	1	1	0	0	510	515	510	467	31	37	
6	1	1	0	0	508	520	510	467	31	37	
7	1	1	0	0	510	514	509	466	31	37	
8	1	1	0	0	511	507	509	467	31	37	
9	1	1	0	0	513	512	508	467	31	37	
10	1	1	0	0	511	517	507	467	31	37	
11	1	1	0	0	509	515	511	467	31	37	
12	1	1	0	0	510	515	512	467	31	37	
13	1	1	0	0	512	517	509	467	31	37	
14	1	1	0	0	509	518	510	467	31	37	
15	1	1	0	0	511	518	510	467	31	37	
0	1	1	0	0	510	518	507	467	31	37	
1	1	1	0	0	508	523	508	466	31	37	
2	1	1	0	0	510	522	509	466	31	37	
3	1	1	0	0	512	519	510	467	31	37	
4	1	1	0	0	510	519	510	467	31	37	
5	1	1	0	0	509	517	508	466	31	37	
6	1	1	0	0	508	520	508	466	31	37	
7	1	1	0	0	510	505	509	466	31	37	
8	1	1	0	0	511	471	512	467	31	37	
9	1	1	0	0	512	484	512	467	31	37	
10	1	1	0	0	508	507	509	467	31	37	
11	1	1	0	0	510	515	507	467	31	37	
12	1	1	0	0	508	519	508	466	31	37	
13	1	1	0	0	511	521	507	467	31	37	
14	1	1	0	0	508	520	508	466	31	37	
15	1	1	0	0	507	523	508	466	31	37	
0	1	1	0	0	511	519	509	466	31	37	
1	1	1	0	0	508	519	511	466	31	37	
2	1	1	0	0	511	513	511	466	31	37	
3	1	1	0	0	512	506	511	466	31	37	
4	1	1	0	0	511	511	510	467	31	37	
5	1	1	0	0	509	514	511	466	31	37	
6	1	1	0	0	510	513	509	467	31	37	
7	1	1	0	0	510	517	510	467	31	37	
8	1	1	0	0	510	514	509	467	31	37	
9	1	1	0	0	511	516	511	466	31	37	
10	1	1	0	0	511	517	509	466	31	37	
11	1	1	0	0	511	518	509	466	31	37	
12	1	1	0	0	510	518	507	465	31	37	
13	1	1	0	0	511	512	508	466	31	37	
14	1	1	0	0	511	510	508	467	31	37	
15	1	1	0	0	510	514	510	466	31	37	
0	1	1	0	0	509	517	508	466	31	37	
1	1	1	0	0	511	512	510	467	31	37	
2	1	1	0	0	512	506	509	466	31	37	
3	1	1	0	0	511	511	508	466	31	37	
4	1	1	0	0	509	512	508	466	31	37	
5	1	1	0	0	511	512	508	465	31	37	
6	1	1	0	0	509	510	510	466	31	37	
7	1	1	0	0	510	510	508	466	31	37	
8	1	1	0	0	509	513	508	465	31	37	
9	1	1	0	0	509	515	511	466	31	37	
10	1	1	0	0	509	514	512	466	31	37	
11	1	1	0	0	506	518	509	466	31	37	
12	1	1	0	0	511	515	508	467	31	37	
13	1	1	0	0	509	514	510	467	31	37	
14	1	1	0	0	510	516	510	466	31	37	
15	1	1	0	0	510	516	510	466	31	37	
0	1	1	0	0	510	518	509	465	31	37	
1	1	1	0	0	513	517	508	465	31	37	
2	1	1	0	0	512	511	512	466	31	37	
3	1	1	0	0	513	495	509	466	31	37	
4	1	1	0	0	512	503	508	465	31	37	
5	1	1	0	0	508	516	508	465	31	37	
6	1	1	0	0	508	517	508	466	31	37	
7	1	1	0	0	510	515	510	467	31	37	
8	1	1	0	0	511	515	510	466	31	37	
9	1	1	0	0	509	519	510	466	31	37	
10	1	1	0	0	513	509	511	465	31	37	
11	1	1	0	0	512	509	510	465	31	37	
12	1	1	0	0	511	514	507	465	31	37	
13	1	1	0	0	509	514	508	465	31	37	
14	1	1	0	0	509	518	509	465	31	37	
15	1	1	0	0	511	516	507	465	31	37	
0	1	1	0	0	510	515	510	465	31	37	
1	1	1	0	0	512	516	511	465	31	37	
2	1	1	0	0	511	516	512	465	31	37	
3	1	1	0	0	511	518	510	466	31	37	
4	1	1	0	0	508	514	511	466	31	37	
5	1	1	0	0	511	510	512	465	31	37	
6	1	1	0	0	509	508	511	465	31	37	
7	1	1	0	0	511	512	507	465	31	37	
8	1	1	0	0	508	515	508	465	31	37	
9	1	1	0	0	509	517	508	465	31	37	
10	1	1	0	0	510	516	508	465	31	37	
11	1	1	0	0	511	516	508	465	31	37	
12	1	1	0	0	511	519	509	465	31	37	
13	1	1	0	0	511	519	511	466	31	37	
14	1	1	0	0	509	518	507	466	31	37	
15	1	1	0	0	511	513	510	466	31	37	
0	1	1	0	0	513	501	508	465	31	37	
1	1	1	0	0	515	500	509	465	31	37	
2	1	1	0	0	511	499	508	466	31	37	
3	1	1	0	0	508	505	511	465	31	37	
4	1	1	0	0	507	514	510	465	31	37	
5	1	1	0	0	507	517	508	465	31	37	
6	1	1	0	0	506	518	510	465	31	37	
7	1	1	0	0	508	520	510	465	31	37	
8	1	1	0	0	507	522	509	466	31	37	
9	1	1	0	0	508	517	513	466	31	37	
10	1	1	0	0	511	509	511	465	31	37	
11	1	1	0	0	512	506	509	465	31	37	
12	1	1	0	0	511	514	508	465	31	37	
13	1	1	0	0	510	514	506	465	31	37	
14	1	1	0	0	510	513	510	465	31	37	
15	1	1	0	0	511	517	508	465	31	37	
0	1	1	0	0	510	518	510	465	31	37	
1	1	1	0	0	508	518	511	465	31	37	
2	1	1	0	0	512	518	510	465	31	37	
3	1	1	0	0	510	520	511	465	31	37	
4	1	1	0	0	510	519	509	465	31	37	
5	1	1	0	0	512	520	507	465	31	37	
6	1	1	0	0	510	503	510	465	31	37	
7	1	1	0	0	510	498	512	465	31	37	
8	1	1	0	0	509	506	509	465	31	37	
9	1	1	0	0	509	509	507	465	31	37	
10	1	1	0	0	511	510	508	464	31	37	
11	1	1	0	0	511	512	510	465	31	37	
12	1	1	0	0	508	512	508	466	31	37	
13	1	1	0	0	510	512	510	465	31	37	
14	1	1	0	0	512	513	509	465	31	37	
15	1	1	0	0	510	515	509	465	31	37	
0	1	1	0	0	511	518	508	465	31	37	
1	1	1	0	0	511	515	509	466	31	37	
2	1	1	0	0	511	513	508	466	31	37	
3	1	1	0	0	510	515	510	465	31	37	
4	1	1	0	0	508	513	508	465	31	37	
5	1	1	0	0	512	511	509	465	31	37	
6	1	1	0	0	509	514	509	465	31	37	
7	1	1	0	0	511	517	509	465	31	37	
8	1	1	0	0	509	518	509	465	31	37	
9	1	1	0	0	512	520	511	465	31	37	
10	1	1	0	0	510	520	509	465	31	37	
11	1	1	0	0	511	524	508	466	31	37	
12	1	1	0	0	511	521	509	466	31	37	
13	1	1	0	0	510	506	511	466	31	37	
14	1	1	0	0	512	501	511	466	31	37	
15	1	1	0	0	511	508	510	465	31	37	
0	1	1	0	0	510	505	507	465	31	37	
1	1	1	0	0	512	506	507	465	31	37	
2	1	1	0	0	511	502	511	465	31	37	
3	1	1	0	0	509	508	510	465	31	37	
4	1	1	0	0	505	513	508	465	31	37	
5	1	1	0	0	506	514	508	466	31	37	
6	1	1	0	0	508	518	508	467	31	37	
7	1	1	0	0	508	518	508	466	31	37	
8	1	1	0	0	508	519	507	466	31	37	
9	1	1	0	0	510	521	511	466	31	37	
10	1	1	0	0	511	511	513	466	31	37	
11	1	1	0	0	514	509	511	466	31	37	
12	1	1	0	0	511	513	508	465	31	37	
13	1	1	0	0	509	519	508	465	31	37	
14	1	1	0	0	505	516	508	467	31	37	
15	1	1	0	0	511	510	510	466	31	37	
0	1	1	0	0	509	514	511	466	31	37	
1	1	1	0	0	511	516	509	466	31	37	
2	1	1	0	0	510	512	508	467	31	37	
3	1	1	0	0	507	516	509	467	31	37	
4	1	1	0	0	513	509	509	467	31	37	
5	1	1	0	0	511	509	511	467	31	37	
6	1	1	0	0	511	514	509	467	31	37	
7	1	1	0	0	513	516	508	466	31	37	
8	1	1	0	0	512	518	509	466	31	37	
9	1	1	0	0	511	518	510	467	31	37	
10	1	1	0	0	512	515	511	467	31	37	
11	1	1	0	0	511	513	511	467	31	37	
12	1	1	0	0	511	514	510	467	31	37	
13	1	1	0	0	512	513	508	468	31	37	
14	1	1	0	0	512	516	508	468	31	37	
15	1	1	0	0	511	515	509	468	31	37	
0	1	1	0	0	512	514	508	467	31	37	
1	1	1	0	0	511	512	510	467	31	37	
2	1	1	0	0	511	511	512	467	31	37	
3	1	1	0	0	510	509	509	467	31	37	
4	1	1	0	0	510	510	509	467	31	37	
5	1	1	0	0	507	513	509	467	31	37	
6	1	1	0	0	507	512	510	467	31	37	
7	1	1	0	0	506	514	508	467	31	37	
8	1	1	0	0	510	516	509	468	31	37	
9	1	1	0	0	508	517	509	468	31	37	
10	1	1	0	0	509	515	510	467	31	37	
11	1	1	0	0	510	514	507	467	31	37	
12	1	1	0	0	511	513	508	466	31	37	
13	1	1	0	0	509	515	508	467	31	37	
14	1	1	0	0	513	513	509	467	31	37	
15	1	1	0	0	512	514	509	466	31	37	
0	1	1	0	0	511	506	508	467	31	37	
1	1	1	0	0	512	499	509	467	31	37	
2	1	1	0	0	508	508	508	467	31	37	
3	1	1	0	0	508	513	510	467	31	37	
4	1	1	0	0	511	518	508	467	31	37	
5	1	1	0	0	511	518	510	467	31	37	
6	1	1	0	0	511	516	508	467	31	37	
7	1	1	0	0	509	514	512	467	31	37	
8	1	1	0	0	510	516	511	467	31	37	
9	1	1	0	0	512	513	510	467	31	37	
10	1	1	0	0	514	513	509	466	31	37	
11	1	1	0	0	510	513	509	467	31	37	
12	1	1	0	0	513	512	510	467	31	37	
13	1	1	0	0	510	512	511	467	31	37	
14	1	1	0	0	513	517	509	467	31	37	
15	1	1	0	0	512	519	508	467	31	37	
0	1	1	0	0	512	515	510	467	31	37	
1	1	1	0	0	510	515	511	467	31	37	
2	1	1	0	0	511	515	510	467	31	37	
3	1	1	0	0	510	517	509	467	31	37	
4	1	1	0	0	509	515	508	467	31	37	
5	1	1	0	0	512	508	509	467	31	37	
6	1	1	0	0	510	499	511	466	31	37	
7	1	1	0	0	508	501	507	467	31	37	
8	1	1	0	0	508	506	509	467	31	37	
9	1	1	0	0	507	511	507	467	31	37	
10	1	1	0	0	508	512	507	466	31	37	
11	1	1	0	0	507	514	507	467	31	37	
12	1	1	0	0	510	513	509	467	31	37	
13	1	1	0	0	511	517	507	467	31	37	
14	1	1	0	0	512	519	508	467	31	37	
15	1	1	0	0	511	519	508	467	31	37	
0	1	1	0	0	510	521	509	467	31	37	
1	1	1	0	0	511	518	509	466	31	37	
2	1	1	0	0	512	518	511	466	31	37	
3	1	1	0	0	512	521	511	466	31	37	
4	1	1	0	0	512	520	509	466	31	37	
5	1	1	0	0	511	512	510	466	31	37	
6	1	1	0	0	511	510	507	467	31	37	
7	1	1	0	0	512	515	510	467	31	37	
8	1	1	0	0	512	513	508	466	31	37	
9	1	1	0	0	512	499	510	467	31	37	
10	1	1	0	0	508	508	508	466	31	37	
11	1	1	0	0	508	512	508	467	31	37	
12	1	1	0	0	510	515	508	467	31	37	
13	1	1	0	0	510	523	507	467	31	37	
14	1	1	0	0	509	516	509	466	31	37	
15	1	1	0	0	508	501	510	466	31	37	
0	1	1	0	0	511	500	510	466	31	37	
1	1	1	0	0	508	505	510	466	31	37	
2	1	1	0	0	506	511	509	466	31	37	
3	1	1	0	0	508	514	509	466	31	37	
4	1	1	0	0	508	510	509	466	31	37	
5	1	1	0	0	511	515	508	467	31	37	
6	1	1	0	0	510	518	509	467	31	37	
7	1	1	0	0	508	520	510	466	31	37	
8	1	1	0	0	508	516	510	466	31	37	
9	1	1	0	0	512	515	511	466	31	37	
10	1	1	0	0	511	517	510	466	31	37	
11	1	1	0	0	513	516	508	466	31	37	
12	1	1	0	0	512	519	510	466	31	37	
13	1	1	0	0	514	518	510	466	31	37	
14	1	1	0	0	511	520	508	466	31	37	
15	1	1	0	0	511	521	508	466	31	37	
0	1	1	0	0	508	518	510	467	31	37	
1	1	1	0	0	511	518	512	466	31	37	
2	1	1	0	0	512	504	512	467	31	37	
3	1	1	0	0	511	501	510	467	31	37	
4	1	1	0	0	507	505	507	467	31	37	
5	1	1	0	0	508	502	508	466	31	37	
6	1	1	0	0	512	505	508	466	31	37	
7	1	1	0	0	507	514	508	466	31	37	
8	1	1	0	0	505	515	509	466	31	37	
9	1	1	0	0	511	515	510	466	31	37	
10	1	1	0	0	510	516	508	467	31	37	
11	1	1	0	0	512	515	510	467	31	37	
12	1	1	0	0	513	513	509	467	31	37	
13	1	1	0	0	512	512	510	467	31	37	
14	1	1	0	0	511	515	509	467	31	37	
15	1	1	0	0	512	515	509	467	31	37	
0	1	1	0	0	511	516	509	467	31	37	
1	1	1	0	0	508	518	510	465	31	37	
2	1	1	0	0	509	517	509	466	31	37	
3	1	1	0	0	511	515	513	466	31	37	
4	1	1	0	0	511	514	510	466	31	37	
5	1	1	0	0	511	514	510	467	31	37	
6	1	1	0	0	509	516	510	466	31	37	
7	1	1	0	0	510	512	511	468	31	37	
8	1	1	0	0	511	511	509	467	31	37	
9	1	1	0	0	510	513	507	467	31	37	
10	1	1	0	0	511	516	507	467	31	37	
11	1	1	0	0	512	515	508	467	31	37	
12	1	1	0	0	511	513	510	467	31	37	
13	1	1	0	0	510	511	510	467	31	37	
14	1	1	0	0	512	513	509	467	30	37	
15	1	1	0	0	512	511	512	467	30	37	
0	1	1	0	0	511	499	508	467	30	37	
1	1	1	0	0	508	505	506	467	31	37	
2	1	1	0	0	511	509	508	468	31	37	
3	1	1	0	0	509	513	508	468	31	37	
4	1	1	0	0	511	513	508	467	31	37	
5	1	1	0	0	509	519	510	467	31	37	
6	1	1	0	0	508	524	509	467	31	37	
7	1	1	0	0	510	519	511	467	31	37	
8	1	1	0	0	508	515	511	467	31	37	
9	1	1	0	0	509	511	511	467	31	37	
10	1	1	0	0	507	516	508	467	31	37	
11	1	1	0	0	510	519	510	467	31	37	
12	1	1	0	0	512	506	506	467	31	37	
13	1	1	0	0	512	508	509	467	31	37	
14	1	1	0	0	507	512	508	467	31	37	
15	1	1	0	0	510	515	510	468	31	37	
0	1	1	0	0	510	518	509	467	31	37	
1	1	1	0	0	512	510	508	467	31	37	
2	1	1	0	0	512	503	509	467	31	37	
3	1	1	0	0	511	504	509	467	31	37	
4	1	1	0	0	507	510	508	467	31	37	
5	1	1	0	0	509	515	510	467	31	37	
6	1	1	0	0	511	517	510	467	31	37	
7	1	1	0	0	510	521	510	467	31	37	
8	1	1	0	0	511	520	508	468	31	37	
9	1	1	0	0	512	516	509	468	31	37	
10	1	1	0	0	512	511	508	467	31	37	
11	1	1	0	0	511	512	511	468	31	37	
12	1	1	0	0	510	517	508	467	31	37	
13	1	1	0	0	510	512	507	467	31	37	
14	1	1	0	0	511	511	510	467	31	37	
15	1	1	0	0	509	513	510	468	31	37	
0	1	1	0	0	511	518	508	468	31	37	
1	1	1	0	0	508	514	508	468	31	37	
2	1	1	0	0	510	513	510	468	31	37	
3	1	1	0	0	511	512	511	468	31	37	
4	1	1	0	0	510	514	511	469	31	37	
5	1	1	0	0	509	515	510	468	31	37	
6	1	1	0	0	509	515	511	468	31	37	
7	1	1	0	0	511	514	510	468	31	37	
8	1	1	0	0	510	517	507	468	31	37	
9	1	1	0	0	510	516	509	468	31	37	
10	1	1	0	0	513	515	507	467	31	37	
11	1	1	0	0	513	515	508	467	31	37	
12	1	1	0	0	511	514	510	468	31	37	
13	1	1	0	0	511	513	510	468	31	37	
14	1	1	0	0	511	518	509	468	31	37	
15	1	1	0	0	509	515	509	468	31	37	
0	1	1	0	0	511	509	511	469	31	37	
1	1	1	0	0	511	497	511	468	31	37	
2	1	1	0	0	509	496	512	467	31	37	
3	1	1	0	0	508	508	509	467	31	37	
4	1	1	0	0	510	513	508	468	31	37	
5	1	1	0	0	508	517	507	467	31	37	
6	1	1	0	0	509	521	507	468	31	37	
7	1	1	0	0	508	517	509	468	31	37	
8	1	1	0	0	508	518	510	467	31	37	
9	1	1	0	0	510	518	509	467	31	37	
10	1	1	0	0	511	516	511	467	31	37	
11	1	1	0	0	511	515	511	467	31	37	
12	1	1	0	0	512	513	509	468	31	37	
13	1	1	0	0	510	507	511	467	31	37	
14	1	1	0	0	511	506	508	467	31	37	
15	1	1	0	0	510	513	511	467	31	37	
0	1	1	0	0	512	516	508	467	31	37	
1	1	1	0	0	509	515	512	467	31	37	
2	1	1	0	0	511	515	509	467	31	37	
3	1	1	0	0	510	514	508	467	31	37	
4	1	1	0	0	508	512	511	467	31	37	
5	1	1	0	0	510	513	510	467	31	37	
6	1	1	0	0	512	515	508	468	31	37	
7	1	1	0	0	510	516	508	467	31	37	
8	1	1	0	0	511	518	508	467	31	37	
9	1	1	0	0	513	515	510	467	31	37	
10	1	1	0	0	511	515	509	467	31	37	
11	1	1	0	0	508	516	510	467	31	37	
12	1	1	0	0	510	509	508	467	31	37	
13	1	1	0	0	513	501	508	467	31	37	
14	1	1	0	0	512	510	508	467	31	37	
15	1	1	0	0	507	514	509	466	31	37	
0	1	1	0	0	510	517	507	467	31	37	
1	1	1	0	0	509	516	508	467	31	37	
2	1	1	0	0	511	517	511	467	31	37	
3	1	1	0	0	511	519	510	467	31	37	
4	1	1	0	0	512	518	509	467	31	37	
5	1	1	0	0	513	517	511	466	31	37	
6	1	1	0	0	513	511	510	466	31	37	
7	1	1	0	0	512	512	509	466	31	37	
8	1	1	0	0	512	516	505	465	31	37	
9	1	1	0	0	509	512	507	466	31	37	
10	1	1	0	0	509	508	509	466	31	37	
11	1	1	0	0	505	510	511	467	31	37	
12	1	1	0	0	509	512	508	467	31	37	
13	1	1	0	0	508	507	510	466	31	37	
14	1	1	0	0	508	509	510	466	31	37	
15	1	1	0	0	510	508	508	466	31	37	
0	1	1	0	0	509	503	511	465	31	37	
1	1	1	0	0	510	504	508	466	31	37	
2	1	1	0	0	510	511	507	465	31	37	
3	1	1	0	0	513	518	508	466	31	37	
4	1	1	0	0	510	523	508	466	31	37	
5	1	1	0	0	510	524	507	466	31	37	
6	1	1	0	0	509	526	510	466	31	37	
7	1	1	0	0	509	523	510	466	31	37	
8	1	1	0	0	513	523	510	466	31	37	
9	1	1	0	0	511	519	510	466	31	37	
10	1	1	0	0	507	515	509	466	31	37	
11	1	1	0	0	512	497	512	466	31	37	
12	1	1	0	0	512	502	509	466	31	37	
13	1	1	0	0	508	508	508	465	31	37	
14	1	1	0	0	506	509	509	466	31	37	
15	1	1	0	0	505	510	509	466	31	37	
0	1	1	0	0	507	514	508	466	31	37	
1	1	1	0	0	510	515	509	467	31	37	
2	1	1	0	0	508	517	505	466	31	37	
3	1	1	0	0	509	516	509	467	31	37	
4	1	1	0	0	508	513	509	467	31	37	
5	1	1	0	0	512	513	509	467	31	37	
6	1	1	0	0	510	515	510	466	31	37	
7	1	1	0	0	510	513	512	465	31	37	
8	1	1	0	0	510	513	510	466	31	37	
9	1	1	0	0	513	516	510	466	31	37	
10	1	1	0	0	513	515	511	465	31	37	
11	1	1	0	0	513	515	511	466	31	37	
12	1	1	0	0	512	514	510	466	31	37	
13	1	1	0	0	508	515	510	466	31	37	
14	1	1	0	0	512	514	508	467	31	37	
15	1	1	0	0	511	517	508	466	31	37	
0	1	1	0	0	510	514	510	466	31	37	
1	1	1	0	0	511	515	507	466	31	37	
2	1	1	0	0	510	515	511	465	31	37	
3	1	1	0	0	510	512	511	465	31	37	
4	1	1	0	0	513	511	509	466	31	37	
5	1	1	0	0	512	515	513	465	31	37	
6	1	1	0	0	513	512	512	465	31	37	
7	1	1	0	0	513	515	508	467	31	37	
8	1	1	0	0	511	516	509	466	31	37	
9	1	1	0	0	509	510	508	466	31	37	
10	1	1	0	0	512	507	509	466	31	37	
11	1	1	0	0	510	510	509	466	31	37	
12	1	1	0	0	509	510	509	466	31	37	
13	1	1	0	0	509	512	509	465	31	37	
14	1	1	0	0	510	515	507	465	31	37	
15	1	1	0	0	510	514	510	465	31	37	
0	1	1	0	0	508	509	510	466	31	37	
1	1	1	0	0	510	504	508	466	31	37	
2	1	1	0	0	511	510	507	465	31	37	
3	1	1	0	0	511	514	506	466	31	37	
4	1	1	0	0	509	515	508	466	31	37	
5	1	1	0	0	510	514	508	466	31	37	
6	1	1	0	0	512	513	508	466	31	37	
7	1	1	0	0	508	515	510	466	31	37	
8	1	1	0	0	511	514	508	465	31	37	
9	1	1	0	0	508	517	509	465	31	37	
10	1	1	0	0	512	514	509	465	31	37	
11	1	1	0	0	510	513	509	465	31	37	
12	1	1	0	0	510	514	509	465	31	37	
13	1	1	0	0	510	516	508	465	31	37	
14	1	1	0	0	511	517	510	465	31	37	
15	1	1	0	0	510	518	511	466	31	37	
0	1	1	0	0	513	518	509	465	31	37	
1	1	1	0	0	511	518	508	465	31	37	
2	1	1	0	0	511	521	508	465	31	37	
3	1	1	0	0	511	518	509	465	31	37	
4	1	1	0	0	509	495	513	465	31	37	
5	1	1	0	0	510	499	509	464	31	38	
6	1	1	0	0	508	509	508	465	31	37	
7	1	1	0	0	510	508	506	465	31	37	
8	1	1	0	0	507	507	507	465	31	37	
9	1	1	0	0	512	510	510	465	31	37	
10	1	1	0	0	507	516	509	465	31	37	
11	1	1	0	0	508	521	508	465	31	37	
12	1	1	0	0	510	524	506	465	31	37	
13	1	1	0	0	510	524	511	465	31	37	
14	1	1	0	0	511	521	511	465	31	37	
15	1	1	0	0	510	522	508	465	31	37	
0	1	1	0	0	510	520	510	465	31	37	
1	1	1	0	0	511	519	513	464	31	37	
2	1	1	0	0	513	508	511	465	31	37	
3	1	1	0	0	511	496	509	464	31	37	
4	1	1	0	0	511	501	508	465	31	37	
5	1	1	0	0	509	509	508	465	31	37	
6	1	1	0	0	512	515	508	465	31	37	
7	1	1	0	0	510	519	508	465	31	37	
8	1	1	0	0	510	508	508	465	31	37	
9	1	1	0	0	511	505	509	464	31	37	
10	1	1	0	0	507	509	510	464	31	37	
11	1	1	0	0	510	513	510	465	31	37	
12	1	1	0	0	509	519	511	465	31	37	
13	1	1	0	0	510	522	509	464	31	37	
14	1	1	0	0	511	524	511	465	31	37	
15	1	1	0	0	510	521	509	465	31	37	
0	1	1	0	0	511	515	509	465	31	37	
1	1	1	0	0	517	501	509	465	31	37	
2	1	1	0	0	513	506	509	465	31	37	
3	1	1	0	0	510	512	509	466	31	37	
4	1	1	0	0	510	511	509	465	31	37	
5	1	1	0	0	508	511	508	465	31	37	
6	1	1	0	0	506	516	508	466	31	37	
7	1	1	0	0	509	519	507	465	31	37	
8	1	1	0	0	512	517	508	465	31	38	
9	1	1	0	0	512	508	510	465	31	37	
10	1	1	0	0	513	514	507	465	31	37	
11	1	1	0	0	511	514	509	465	31	37	
12	1	1	0	0	511	515	508	465	31	37	
13	1	1	0	0	511	516	509	465	31	37	
14	1	1	0	0	508	517	509	465	31	37	
15	1	1	0	0	508	517	510	466	31	37	
0	1	1	0	0	508	520	509	465	31	37	
1	1	1	0	0	509	516	510	465	31	37	
2	1	1	0	0	511	514	508	466	31	37	
3	1	1	0	0	510	515	510	465	31	37	
4	1	1	0	0	510	511	511	466	31	37	
5	1	1	0	0	510	502	510	465	31	37	
6	1	1	0	0	509	501	510	465	31	37	
7	1	1	0	0	508	507	508	465	31	37	
8	1	1	0	0	510	512	509	466	31	37	
9	1	1	0	0	509	517	508	466	31	37	
10	1	1	0	0	510	516	507	465	31	37	
11	1	1	0	0	512	512	510	466	31	37	
12	1	1	0	0	510	511	510	466	31	37	
13	1	1	0	0	512	513	510	465	31	37	
14	1	1	0	0	511	512	510	465	31	37	
15	1	1	0	0	512	512	509	466	31	37	
0	1	1	0	0	510	517	506	465	31	37	
1	1	1	0	0	508	515	507	465	31	37	
2	1	1	0	0	511	515	509	465	31	37	
3	1	1	0	0	510	515	510	466	31	37	
4	1	1	0	0	511	517	509	466	31	37	
5	1	1	0	0	509	515	510	466	31	37	
6	1	1	0	0	510	518	510	466	31	37	
7	1	1	0	0	510	523	509	465	31	37	
8	1	1	0	0	510	516	509	465	31	37	
9	1	1	0	0	511	511	509	465	31	37	
10	1	1	0	0	510	507	510	465	31	37	
11	1	1	0	0	512	503	510	465	31	37	
12	1	1	0	0	510	508	508	465	31	37	
13	1	1	0	0	511	513	510	465	31	37	
14	1	1	0	0	511	512	510	466	31	37	
15	1	1	0	0	510	516	507	465	31	37	
0	1	1	0	0	508	518	509	466	31	37	
1	1	1	0	0	508	518	510	466	31	37	
2	1	1	0	0	511	518	508	466	31	37	
3	1	1	0	0	509	516	510	465	31	37	
4	1	1	0	0	510	510	509	465	31	37	
5	1	1	0	0	508	508	510	465	31	37	
6	1	1	0	0	510	508	510	466	31	37	
7	1	1	0	0	510	512	509	466	31	37	
8	1	1	0	0	510	514	510	466	31	37	
9	1	1	0	0	513	511	511	466	31	37	
10	1	1	0	0	510	514	508	466	31	37	
11	1	1	0	0	510	505	509	466	31	37	
12	1	1	0	0	509	507	508	465	31	37	
13	1	1	0	0	510	518	505	466	31	37	
14	1	1	0	0	510	515	507	466	31	37	
15	1	1	0	0	510	518	507	465	31	37	
0	1	1	0	0	511	519	509	466	31	37	
1	1	1	0	0	511	523	509	465	31	37	
2	1	1	0	0	514	508	510	464	31	37	
3	1	1	0	0	514	509	510	465	31	37	
4	1	1	0	0	510	514	508	465	31	37	
5	1	1	0	0	508	515	511	465	31	37	
6	1	1	0	0	510	514	512	465	31	37	
7	1	1	0	0	512	514	511	465	31	37	
8	1	1	0	0	512	511	509	466	31	37	
9	1	1	0	0	511	515	509	466	31	37	
10	1	1	0	0	508	517	510	465	31	37	
11	1	1	0	0	511	517	511	466	31	37	
12	1	1	0	0	511	516	511	466	31	37	
13	1	1	0	0	510	510	508	466	31	37	
14	1	1	0	0	510	516	508	465	31	37	
15	1	1	0	0	510	512	509	465	31	37	
0	1	1	0	0	511	511	509	466	31	37	
1	1	1	0	0	510	512	508	465	31	37	
2	1	1	0	0	508	515	506	465	31	37	
3	1	1	0	0	510	514	507	467	31	37	
4	1	1	0	0	512	509	511	466	31	37	
5	1	1	0	0	513	502	510	466	31	37	
6	1	1	0	0	513	510	507	466	31	37	
7	1	1	0	0	510	514	508	466	31	37	
8	1	1	0	0	509	517	510	466	31	37	
9	1	1	0	0	508	515	510	466	31	37	
10	1	1	0	0	510	515	509	465	31	37	
11	1	1	0	0	510	514	509	465	31	37	
12	1	1	0	0	511	514	511	465	31	37	
13	1	1	0	0	513	516	509	467	31	37	
14	1	1	0	0	509	518	508	466	31	37	
15	1	1	0	0	509	516	509	466	31	37	
0	1	1	0	0	511	518	510	466	31	37	
1	1	1	0	0	508	517	509	465	31	37	
2	1	1	0	0	511	519	508	466	31	37	
3	1	1	0	0	508	515	509	466	31	37	
4	1	1	0	0	511	500	510	466	31	37	
5	1	1	0	0	511	501	510	465	31	37	
6	1	1	0	0	509	512	507	465	31	37	
7	1	1	0	0	507	515	507	465	31	37	
8	1	1	0	0	507	509	509	465	31	37	
9	1	1	0	0	509	512	509	466	31	37	
10	1	1	0	0	511	509	510	466	31	37	
11	1	1	0	0	510	505	508	466	31	37	
12	1	1	0	0	512	512	507	467	31	37	
13	1	1	0	0	510	515	509	467	31	37	
14	1	1	0	0	510	516	509	466	31	37	
15	1	1	0	0	513	519	508	465	31	37	
0	1	1	0	0	512	519	509	465	31	37	
1	1	1	0	0	510	514	508	465	31	37	
2	1	1	0	0	511	509	511	465	31	37	
3	1	1	0	0	512	511	509	465	31	37	
4	1	1	0	0	510	516	510	465	31	37	
5	1	1	0	0	508	519	509	465	31	37	
6	1	1	0	0	509	517	510	465	31	37	
7	1	1	0	0	508	518	508	465	31	37	
8	1	1	0	0	510	516	508	465	31	37	
9	1	1	0	0	511	512	510	466	31	37	
10	1	1	0	0	510	510	508	465	31	37	
11	1	1	0	0	511	512	508	466	31	37	
12	1	1	0	0	510	512	510	465	31	37	
13	1	1	0	0	510	513	508	465	31	37	
14	1	1	0	0	511	515	509	464	31	37	
15	1	1	0	0	509	514	510	465	31	37	
0	1	1	0	0	511	513	511	465	31	37	
1	1	1	0	0	510	513	509	465	31	37	
2	1	1	0	0	510	515	510	465	31	37	
3	1	1	0	0	511	516	511	465	31	37	
4	1	1	0	0	508	517	507	464	31	37	
5	1	1	0	0	512	515	510	466	31	37	
6	1	1	0	0	511	513	511	465	31	37	
7	1	1	0	0	511	513	511	465	31	37	
8	1	1	0	0	512	512	510	465	31	37	
9	1	1	0	0	510	513	511	465	31	37	
10	1	1	0	0	508	514	512	464	31	37	
11	1	1	0	0	508	518	508	465	31	37	
12	1	1	0	0	510	516	508	465	31	37	
13	1	1	0	0	508	515	508	465	31	37	
14	1	1	0	0	508	510	507	465	31	37	
15	1	1	0	0	511	506	508	465	31	37	
0	1	1	0	0	512	508	510	465	31	37	
1	1	1	0	0	511	505	508	465	31	37	
2	1	1	0	0	509	509	508	465	31	37	
3	1	1	0	0	508	513	510	465	31	37	
4	1	1	0	0	509	519	508	465	31	37	
5	1	1	0	0	509	521	509	465	31	37	
6	1	1	0	0	511	520	510	466	31	37	
7	1	1	0	0	511	520	510	465	31	37	
8	1	1	0	0	512	517	510	465	31	37	
9	1	1	0	0	512	512	511	466	31	37	
10	1	1	0	0	508	506	511	466	31	37	
11	1	1	0	0	512	492	509	466	31	37	
12	1	1	0	0	512	501	508	466	31	37	
13	1	1	0	0	508	510	507	466	31	37	
14	1	1	0	0	507	515	507	466	31	37	
15	1	1	0	0	508	519	507	466	31	37	
0	1	1	0	0	507	519	504	465	31	37	
1	1	1	0	0	509	505	510	465	31	37	
2	1	1	0	0	508	509	510	465	31	37	
3	1	1	0	0	510	516	510	466	31	37	
4	1	1	0	0	513	516	510	466	31	37	
5	1	1	0	0	511	517	510	467	31	37	
6	1	1	0	0	512	515	509	466	31	37	
7	1	1	0	0	510	506	509	465	31	37	
8	1	1	0	0	511	508	510	466	31	37	
9	1	1	0	0	508	517	510	465	31	37	
10	1	1	0	0	511	518	512	465	31	37	
11	1	1	0	0	513	519	511	466	31	37	
12	1	1	0	0	512	522	509	466	31	37	
13	1	1	0	0	511	519	511	466	31	37	
14	1	1	0	0	510	519	508	466	31	37	
15	1	1	0	0	511	519	509	467	31	37	
0	1	1	0	0	512	518	511	466	31	37	
1	1	1	0	0	512	508	509	466	31	37	
2	1	1	0	0	512	500	509	466	31	37	
3	1	1	0	0	510	504	512	466	31	37	
4	1	1	0	0	509	511	509	466	31	38	
5	1	1	0	0	509	514	508	465	31	38	
6	1	1	0	0	508	513	509	466	31	37	
7	1	1	0	0	509	516	510	466	31	37	
8	1	1	0	0	509	515	508	466	31	37	
9	1	1	0	0	511	515	509	467	31	37	
10	1	1	0	0	511	516	509	466	31	37	
11	1	1	0	0	511	518	510	466	31	37	
12	1	1	0	0	511	515	510	467	31	37	
13	1	1	0	0	510	516	510	466	31	37	
14	1	1	0	0	511	518	506	467	31	37	
15	1	1	0	0	511	515	508	466	31	37	
0	1	1	0	0	512	517	508	466	31	37	
1	1	1	0	0	511	508	511	466	31	37	
2	1	1	0	0	511	510	508	466	31	37	
3	1	1	0	0	512	510	509	466	31	37	
4	1	1	0	0	510	514	506	466	31	37	
5	1	1	0	0	509	507	508	466	31	37	
6	1	1	0	0	510	508	511	467	31	37	
7	1	1	0	0	510	517	508	466	31	37	
8	1	1	0	0	511	517	506	466	31	37	
9	1	1	0	0	509	512	508	466	31	37	
10	1	1	0	0	512	503	510	465	31	37	
11	1	1	0	0	510	508	510	465	31	38	
12	1	1	0	0	509	513	510	466	31	37	
13	1	1	0	0	508	516	509	465	31	37	
14	1	1	0	0	509	520	509	466	31	37	
15	1	1	0	0	511	518	511	466	31	37	
0	1	1	0	0	510	515	511	466	31	37	
1	1	1	0	0	508	515	511	466	31	37	
2	1	1	0	0	511	513	510	466	31	37	
3	1	1	0	0	509	515	510	466	31	37	
4	1	1	0	0	511	518	507	465	31	37	
5	1	1	0	0	508	519	508	466	31	38	
6	1	1	0	0	511	516	509	465	31	37	
7	1	1	0	0	513	514	510	466	31	37	
8	1	1	0	0	509	514	508	466	31	37	
9	1	1	0	0	513	511	510	466	31	37	
10	1	1	0	0	510	513	508	467	31	37	
11	1	1	0	0	510	512	510	466	31	37	
12	1	1	0	0	510	510	507	467	31	37	
13	1	1	0	0	511	511	508	467	31	37	
14	1	1	0	0	512	511	507	467	31	37	
15	1	1	0	0	508	518	509	466	31	37	
0	1	1	0	0	508	515	508	466	31	37	
1	1	1	0	0	510	515	510	465	31	37	
2	1	1	0	0	512	516	510	465	31	37	
3	1	1	0	0	512	517	511	466	31	37	
4	1	1	0	0	511	516	509	466	31	37	
5	1	1	0	0	512	504	510	467	31	37	
6	1	1	0	0	511	507	511	466	31	37	
7	1	1	0	0	508	514	508	467	31	37	
8	1	1	0	0	513	515	509	467	31	37	
9	1	1	0	0	511	515	511	467	31	37	
10	1	1	0	0	508	515	509	466	31	37	
11	1	1	0	0	508	513	507	467	31	37	
12	1	1	0	0	508	511	510	465	31	37	
13	1	1	0	0	508	513	509	466	31	37	
14	1	1	0	0	510	514	508	466	31	37	
15	1	1	0	0	510	515	509	466	31	37	
0	1	1	0	0	511	512	510	466	31	37	
1	1	1	0	0	507	510	509	466	31	37	
2	1	1	0	0	510	510	508	466	31	37	
3	1	1	0	0	507	511	509	467	31	37	
4	1	1	0	0	511	512	508	467	31	37	
5	1	1	0	0	508	515	508	466	31	37	
6	1	1	0	0	511	518	509	466	31	37	
7	1	1	0	0	508	511	508	465	31	37	
8	1	1	0	0	512	506	510	465	31	37	
9	1	1	0	0	510	515	508	466	31	37	
10	1	1	0	0	510	519	508	466	31	37	
11	1	1	0	0	512	515	510	466	31	37	
12	1	1	0	0	514	515	507	467	31	37	
13	1	1	0	0	511	515	509	467	31	37	
14	1	1	0	0	510	517	510	467	31	37	
15	1	1	0	0	510	519	511	467	31	37	
0	1	1	0	0	511	517	509	466	31	37	
1	1	1	0	0	510	516	507	466	31	37	
2	1	1	0	0	510	512	510	466	31	37	
3	1	1	0	0	508	512	511	466	31	37	
4	1	1	0	0	510	509	511	465	31	37	
5	1	1	0	0	509	502	507	466	31	37	
6	1	1	0	0	510	500	509	466	31	37	
7	1	1	0	0	511	509	509	466	31	37	
8	1	1	0	0	508	514	507	466	31	37	
9	1	1	0	0	509	518	508	467	31	37	
10	1	1	0	0	510	519	509	466	31	37	
11	1	1	0	0	510	516	508	466	31	37	
12	1	1	0	0	510	519	508	466	31	38	
13	1	1	0	0	512	514	511	466	31	38	
14	1	1	0	0	514	512	508	466	31	38	
15	1	1	0	0	509	504	509	466	31	37	
0	1	1	0	0	511	506	510	466	31	37	
1	1	1	0	0	505	515	510	466	31	37	
2	1	1	0	0	511	517	511	466	31	37	
3	1	1	0	0	512	515	510	466	31	37	
4	1	1	0	0	506	517	511	467	31	37	
5	1	1	0	0	511	514	509	466	31	37	
6	1	1	0	0	511	518	510	467	31	38	
7	1	1	0	0	510	522	508	467	31	38	
8	1	1	0	0	511	517	509	465	31	37	
9	1	1	0	0	513	508	511	466	31	38	
10	1	1	0	0	510	511	508	465	31	37	
11	1	1	0	0	509	512	509	466	31	38	
12	1	1	0	0	509	510	510	466	31	38	
13	1	1	0	0	513	511	508	466	31	37	
14	1	1	0	0	510	516	509	467	31	37	
15	1	1	0	0	510	513	511	466	31	37	
0	1	1	0	0	510	513	510	467	31	37	
1	1	1	0	0	512	515	510	466	31	38	
2	1	1	0	0	510	513	510	466	31	38	
3	1	1	0	0	512	512	509	466	31	38	
4	1	1	0	0	511	515	509	465	31	38	
5	1	1	0	0	510	518	510	466	31	38	
6	1	1	0	0	509	515	510	466	31	38	
7	1	1	0	0	512	515	508	466	31	38	
8	1	1	0	0	510	515	510	467	31	37	
9	1	1	0	0	513	514	511	467	31	37	
10	1	1	0	0	508	516	508	467	31	37	
11	1	1	0	0	511	514	511	467	31	37	
12	1	1	0	0	510	509	510	467	31	37	
13	1	1	0	0	510	511	510	467	31	37	
14	1	1	0	0	510	513	508	467	31	37	
15	1	1	0	0	509	512	509	467	31	38	
0	1	1	0	0	509	516	508	467	31	37	
1	1	1	0	0	509	515	507	466	31	37	
2	1	1	0	0	510	511	509	466	30	37	
3	1	1	0	0	512	510	507	466	30	37	
4	1	1	0	0	512	513	509	466	30	37	
5	1	1	0	0	509	519	510	467	31	37	
6	1	1	0	0	510	516	508	467	31	37	
7	1	1	0	0	513	517	509	467	31	38	
8	1	1	0	0	511	511	510	467	31	37	
9	1	1	0	0	511	509	509	466	31	37	
10	1	1	0	0	508	512	509	466	31	38	
11	1	1	0	0	512	512	510	465	31	37	
12	1	1	0	0	511	506	510	465	30	38	
13	1	1	0	0	512	509	508	466	30	38	
14	1	1	0	0	509	513	508	467	30	37	
15	1	1	0	0	509	518	507	466	30	37	
0	1	1	0	0	509	515	508	466	30	37	
1	1	1	0	0	510	512	508	466	30	37	
2	1	1	0	0	510	515	508	466	30	37	
3	1	1	0	0	511	515	510	466	31	37	
4	1	1	0	0	509	515	509	466	31	37	
5	1	1	0	0	511	516	509	467	31	37	
6	1	1	0	0	508	517	511	466	30	37	
7	1	1	0	0	512	513	510	465	30	37	
8	1	1	0	0	512	510	511	466	30	37	
9	1	1	0	0	512	502	510	466	30	37	
10	1	1	0	0	511	505	511	465	30	37	
11	1	1	0	0	509	510	509	466	30	37	
12	1	1	0	0	509	514	507	466	30	37	
13	1	1	0	0	510	514	509	466	31	37	
14	1	1	0	0	510	516	509	467	30	37	
15	1	1	0	0	511	518	510	467	30	37	
0	1	1	0	0	509	519	509	466	31	37	
1	1	1	0	0	509	517	509	466	31	37	
2	1	1	0	0	511	514	510	465	31	38	
3	1	1	0	0	511	514	513	466	30	37	
4	1	1	0	0	510	515	510	466	30	37	
5	1	1	0	0	508	512	510	465	31	37	
6	1	1	0	0	512	506	510	466	30	37	
7	1	1	0	0	509	511	508	466	31	37	
8	1	1	0	0	509	515	507	466	30	37	
9	1	1	0	0	508	512	508	467	31	37	
10	1	1	0	0	510	515	509	466	31	37	
11	1	1	0	0	510	513	509	465	31	37	
12	1	1	0	0	511	515	507	466	31	38	
13	1	1	0	0	511	513	509	466	31	37	
14	1	1	0	0	512	515	508	466	31	38	
15	1	1	0	0	509	518	508	465	30	37	
0	1	1	0	0	510	516	511	465	30	37	
1	1	1	0	0	509	518	509	467	31	37	
2	1	1	0	0	509	518	509	465	31	37	
3	1	1	0	0	512	514	511	466	31	37	
4	1	1	0	0	512	510	512	466	31	37	
5	1	1	0	0	510	508	511	466	31	37	
6	1	1	0	0	512	503	510	466	31	37	
7	1	1	0	0	510	508	508	466	31	37	
8	1	1	0	0	507	513	507	466	31	37	
9	1	1	0	0	509	518	508	465	31	37	
10	1	1	0	0	509	519	509	464	31	38	
11	1	1	0	0	508	520	509	465	31	37	
12	1	1	0	0	509	516	509	465	31	37	
13	1	1	0	0	510	515	510	465	31	37	
14	1	1	0	0	512	503	511	466	31	37	
15	1	1	0	0	511	501	511	465	31	37	
0	1	1	0	0	513	506	508	465	31	37	
1	1	1	0	0	508	510	510	465	31	37	
2	1	1	0	0	509	514	508	465	31	37	
3	1	1	0	0	510	516	509	465	31	37	
4	1	1	0	0	508	515	509	465	31	37	
5	1	1	0	0	511	515	509	465	31	37	
6	1	1	0	0	511	515	509	465	31	37	
7	1	1	0	0	510	519	510	465	30	38	
8	1	1	0	0	511	518	508	465	30	37	
9	1	1	0	0	511	516	507	464	31	37	
10	1	1	0	0	513	516	509	464	31	38	
11	1	1	0	0	512	515	509	464	31	37	
12	1	1	0	0	513	516	507	465	31	37	
13	1	1	0	0	508	515	508	464	31	37	
14	1	1	0	0	508	511	509	465	31	37	
15	1	1	0	0	510	510	510	465	31	37	
0	1	1	0	0	508	512	509	464	31	37	
1	1	1	0	0	511	511	510	464	31	37	
2	1	1	0	0	511	515	507	463	31	38	
3	1	1	0	0	510	516	508	464	31	38	
4	1	1	0	0	512	511	510	463	31	38	
5	1	1	0	0	509	512	508	463	31	38	
6	1	1	0	0	510	514	507	465	30	37	
7	1	1	0	0	510	513	509	464	31	37	
8	1	1	0	0	512	512	510	464	30	37	
9	1	1	0	0	506	512	511	464	31	37	
10	1	1	0	0	508	512	508	463	31	38	
11	1	1	0	0	510	513	509	464	30	38	
12	1	1	0	0	510	512	510	464	31	38	
13	1	1	0	0	508	515	509	464	31	38	
14	1	1	0	0	510	512	509	464	31	38	
15	1	1	0	0	508	510	509	463	30	38	
0	1	1	0	0	510	509	508	463	30	38	
1	1	1	0	0	510	510	509	463	30	38	
2	1	1	0	0	509	513	510	463	30	37	
3	1	1	0	0	513	514	510	463	30	37	
4	1	1	0	0	509	515	508	463	30	37	
5	1	1	0	0	512	515	510	463	31	37	
6	1	1	0	0	513	514	509	464	30	38	
7	1	1	0	0	510	515	511	463	30	37	
8	1	1	0	0	511	512	509	463	30	37	
9	1	1	0	0	511	517	508	463	30	38	
10	1	1	0	0	507	519	507	463	30	38	
11	1	1	0	0	514	515	509	463	30	38	
12	1	1	0	0	511	515	512	463	30	37	
13	1	1	0	0	507	516	508	462	30	37	
14	1	1	0	0	512	515	508	463	30	37	
15	1	1	0	0	512	516	509	463	30	37	
0	1	1	0	0	508	516	512	463	30	37	
1	1	1	0	0	509	515	508	463	30	37	
2	1	1	0	0	511	513	509	462	30	37	
3	1	1	0	0	508	511	510	463	31	37	
4	1	1	0	0	509	512	507	463	31	37	
5	1	1	0	0	510	516	509	462	31	37	
6	1	1	0	0	508	511	509	462	31	37	
7	1	1	0	0	508	505	507	462	30	37	
8	1	1	0	0	509	501	510	462	30	37	
9	1	1	0	0	508	510	508	463	30	37	
10	1	1	0	0	511	514	509	463	30	37	
11	1	1	0	0	510	515	506	463	30	37	
12	1	1	0	0	512	519	508	462	30	37	
13	1	1	0	0	509	519	508	463	31	37	
14	1	1	0	0	512	516	511	463	30	37	
15	1	1	0	0	511	517	510	463	30	37	
0	1	1	0	0	510	515	510	463	31	37	
1	1	1	0	0	512	513	511	462	31	37	
2	1	1	0	0	510	512	509	462	30	37	
3	1	1	0	0	510	511	509	462	30	37	
4	1	1	0	0	511	510	511	463	30	37	
5	1	1	0	0	508	511	508	463	30	37	
6	1	1	0	0	513	515	511	463	30	37	
7	1	1	0	0	511	519	511	463	30	37	
8	1	1	0	0	505	515	510	463	30	37	
9	1	1	0	0	509	513	512	463	31	37	
10	1	1	0	0	510	513	507	462	30	37	
11	1	1	0	0	509	514	508	463	31	37	
12	1	1	0	0	509	511	511	462	30	37	
13	1	1	0	0	511	515	509	463	31	37	
14	1	1	0	0	510	512	511	463	30	37	
15	1	1	0	0	512	515	509	462	30	37	
0	1	1	0	0	509	516	510	463	31	37	
1	1	1	0	0	512	510	511	463	31	37	
2	1	1	0	0	514	508	509	463	31	37	
3	1	1	0	0	512	508	508	463	31	37	
4	1	1	0	0	512	506	507	462	31	37	
5	1	1	0	0	512	511	510	462	31	37	
6	1	1	0	0	509	512	508	463	31	37	
7	1	1	0	0	510	513	509	462	31	37	
8	1	1	0	0	509	516	509	462	31	37	
9	1	1	0	0	504	518	509	462	30	37	
10	1	1	0	0	510	517	509	463	30	37	
11	1	1	0	0	511	517	508	463	30	37	
12	1	1	0	0	509	522	507	463	30	37	
13	1	1	0	0	513	516	510	463	31	37	
14	1	1	0	0	508	518	509	463	30	37	
15	1	1	0	0	508	512	510	463	30	37	
0	1	1	0	0	508	514	509	463	31	37	
1	1	1	0	0	508	515	510	463	31	37	
2	1	1	0	0	513	513	512	463	30	37	
3	1	1	0	0	511	509	509	462	30	37	
4	1	1	0	0	515	503	509	462	30	37	
5	1	1	0	0	516	502	510	462	30	37	
6	1	1	0	0	515	507	510	463	30	37	
7	1	1	0	0	514	510	509	463	30	37	
8	1	1	0	0	512	513	508	463	30	37	
9	1	1	0	0	512	512	510	463	30	37	
10	1	1	0	0	507	512	508	462	30	37	
11	1	1	0	0	504	520	510	463	30	37	
12	1	1	0	0	513	523	510	463	30	37	
13	1	1	0	0	516	514	509	463	30	37	
14	1	1	0	0	509	510	511	463	30	37	
15	1	1	0	0	509	516	507	463	30	37	
0	1	1	0	0	510	516	507	463	30	37	
1	1	1	0	0	513	518	510	463	30	37	
2	1	1	0	0	506	516	510	463	30	37	
3	1	1	0	0	504	515	510	463	30	37	
4	1	1	0	0	508	513	512	463	30	37	
5	1	1	0	0	508	513	513	463	30	37	
6	1	1	0	0	509	515	511	463	30	37	
7	1	1	0	0	512	513	510	463	30	37	
8	1	1	0	0	514	512	509	463	30	37	
9	1	1	0	0	516	513	506	463	30	37	
10	1	1	0	0	516	518	504	463	30	37	
11	1	1	0	0	517	513	507	463	30	37	
12	1	1	0	0	513	513	508	463	30	37	
13	1	1	0	0	507	518	504	463	30	37	
14	1	1	0	0	501	512	508	463	30	37	
15	1	1	0	0	504	511	508	463	30	37	
0	1	1	0	0	508	511	510	463	30	37	
1	1	1	0	0	504	511	512	463	30	37	
2	1	1	0	0	507	509	512	463	30	37	
3	1	1	0	0	510	510	509	463	30	37	
4	1	1	0	0	508	513	506	463	30	37	
5	1	1	0	0	511	515	507	463	30	37	
6	1	1	0	0	512	513	508	463	30	37	
7	1	1	0	0	513	514	508	463	30	37	
8	1	1	0	0	511	513	508	463	30	37	
9	1	1	0	0	510	522	510	463	30	37	
10	1	1	0	0	511	521	508	463	30	37	
11	1	1	0	0	512	518	508	462	30	37	
12	1	1	0	0	518	509	511	463	30	37	
13	1	1	0	0	515	511	511	463	30	37	
14	1	1	0	0	515	511	513	463	30	37	
15	1	1	0	0	513	510	510	463	30	37	
0	1	1	0	0	511	514	507	463	30	37	
1	1	1	0	0	510	515	510	463	30	37	
2	1	1	0	0	507	507	512	463	30	37	
3	1	1	0	0	508	506	510	464	30	37	
4	1	1	0	0	511	509	508	464	30	37	
5	1	1	0	0	508	517	507	465	30	37	
6	1	1	0	0	508	514	510	465	30	37	
7	1	1	0	0	508	510	510	465	30	37	
8	1	1	0	0	511	511	505	465	30	37	
9	1	1	0	0	509	510	508	465	30	37	
10	1	1	0	0	509	511	507	464	30	37	
11	1	1	0	0	511	514	509	465	30	37	
12	1	1	0	0	508	519	509	465	30	37	
13	1	1	0	0	509	516	508	466	30	37	
14	1	1	0	0	505	509	512	465	30	37	
15	1	1	0	0	505	507	513	465	30	37	
0	1	1	0	0	509	505	511	467	30	37	
1	1	1	0	0	511	508	508	466	30	37	
2	1	1	0	0	513	510	509	466	30	37	
3	1	1	0	0	509	510	509	466	30	37	
4	1	1	0	0	506	519	508	466	30	37	
5	1	1	0	0	512	515	508	465	30	37	
6	1	1	0	0	510	519	509	465	30	37	
7	1	1	0	0	510	522	509	466	30	37	
8	1	1	0	0	511	516	514	466	30	37	
9	1	1	0	0	521	513	513	465	30	37	
10	1	1	0	0	517	518	510	465	30	37	
11	1	1	0	0	515	516	510	465	30	37	
12	1	1	0	0	513	514	508	465	30	37	
13	1	1	0	0	507	512	511	465	30	37	
14	1	1	0	0	508	512	512	465	30	37	
15	1	1	0	0	510	518	507	464	30	37	
0	1	1	0	0	506	521	507	465	30	37	
1	1	1	0	0	503	527	508	464	30	37	
2	1	1	0	0	507	522	508	464	30	37	
3	1	1	0	0	514	515	509	464	30	37	
4	1	1	0	0	512	507	511	465	30	37	
5	1	1	0	0	511	498	513	465	30	37	
6	1	1	0	0	511	497	511	466	30	37	
7	1	1	0	0	509	503	508	465	30	37	
8	1	1	0	0	509	505	509	464	30	37	
9	1	1	0	0	510	507	510	464	30	37	
10	1	1	0	0	506	506	510	464	30	37	
11	1	1	0	0	506	515	509	464	30	37	
12	1	1	0	0	510	503	509	464	30	37	
13	1	1	0	0	512	497	507	464	30	37	
14	1	1	0	0	517	499	507	464	30	37	
15	1	1	0	0	512	508	509	465	30	37	
0	1	1	0	0	508	517	507	465	30	37	
1	1	1	0	0	508	517	508	464	30	37	
2	1	1	0	0	504	532	507	464	30	37	
3	1	1	0	0	498	530	507	465	30	37	
4	1	1	0	0	499	537	505	464	30	37	
5	1	1	0	0	506	531	508	464	30	37	
6	1	1	0	0	510	526	511	464	30	37	
7	1	1	0	0	515	520	512	464	30	37	
8	1	1	0	0	514	519	511	464	30	37	
9	1	1	0	0	512	517	509	464	30	37	
10	1	1	0	0	515	520	507	465	30	37	
11	1	1	0	0	512	519	511	465	30	37	
12	1	1	0	0	513	524	508	466	30	37	
13	1	1	0	0	511	529	508	466	30	37	
14	1	1	0	0	507	530	507	466	30	37	
15	1	1	0	0	508	522	509	465	30	37	
0	1	1	0	0	512	515	512	465	30	37	
1	1	1	0	0	513	501	513	464	30	37	
2	1	1	0	0	513	505	511	465	30	37	
3	1	1	0	0	505	512	510	465	30	37	
4	1	1	0	0	504	512	509	465	30	36	
5	1	1	0	0	507	498	510	466	30	36	
6	1	1	0	0	511	503	509	466	30	36	
7	1	1	0	0	508	500	510	466	30	36	
8	1	1	0	0	511	505	508	467	30	36	
9	1	1	0	0	512	500	509	467	30	36	
10	1	1	0	0	513	500	508	467	30	36	
11	1	1	0	0	512	498	510	466	30	36	
12	1	1	0	0	509	500	509	467	30	36	
13	1	1	0	0	508	506	509	467	30	36	
14	1	1	0	0	510	505	510	467	30	36	
15	1	1	0	0	513	509	510	467	30	36	
0	1	1	0	0	512	511	508	467	30	36	
1	1	1	0	0	510	515	507	468	30	36	
2	1	1	0	0	508	519	508	468	30	36	
3	1	1	0	0	509	518	508	469	30	36	
4	1	1	0	0	510	513	510	469	30	36	
5	1	1	0	0	508	514	509	468	30	36	
6	1	1	0	0	508	511	511	469	30	36	
7	1	1	0	0	506	512	510	468	30	36	
8	1	1	0	0	510	506	512	468	30	36	
9	1	1	0	0	512	508	510	469	30	36	
10	1	1	0	0	509	508	510	468	30	36	
11	1	1	0	0	507	515	509	470	30	36	
12	1	1	0	0	507	519	509	469	30	36	
13	1	1	0	0	509	519	509	470	30	36	
14	1	1	0	0	512	516	508	470	30	36	
15	1	1	0	0	512	517	508	471	30	36	
0	1	1	0	0	512	523	506	470	30	36	
1	1	1	0	0	510	527	507	470	30	36	
2	1	1	0	0	511	523	507	470	30	36	
3	1	1	0	0	508	528	509	470	30	36	
4	1	1	0	0	508	531	511	470	30	36	
5	1	1	0	0	511	524	511	470	30	36	
6	1	1	0	0	510	514	514	471	30	36	
7	1	1	0	0	511	520	509	472	30	36	
8	1	1	0	0	508	525	509	471	30	36	
9	1	1	0	0	511	519	513	472	30	36	
10	1	1	0	0	510	517	510	472	30	36	
11	1	1	0	0	510	510	510	472	30	36	
12	1	1	0	0	512	513	508	473	30	36	
13	1	1	0	0	510	516	511	472	30	36	
14	1	1	0	0	510	511	509	472	30	36	
15	1	1	0	0	513	506	511	472	30	36	
0	1	1	0	0	513	507	510	472	29	36	
1	1	1	0	0	512	511	508	473	30	36	
2	1	1	0	0	508	515	508	473	30	36	
3	1	1	0	0	506	515	507	474	30	36	
4	1	1	0	0	507	517	508	474	30	36	
5	1	1	0	0	506	518	507	475	30	36	
6	1	1	0	0	509	504	511	475	30	36	
7	1	1	0	0	511	505	510	475	30	36	
8	1	1	0	0	512	506	510	476	30	36	
9	1	1	0	0	512	511	508	475	30	36	
10	1	1	0	0	515	505	509	475	30	36	
11	1	1	0	0	517	510	509	476	30	36	
12	1	1	0	0	511	510	510	475	30	36	
13	1	1	0	0	511	507	509	476	30	36	
14	1	1	0	0	511	501	510	477	30	36	
15	1	1	0	0	510	500	510	476	30	36	
0	1	1	0	0	507	506	511	477	30	36	
1	1	1	0	0	506	521	509	478	30	36	
2	1	1	0	0	503	526	504	478	30	36	
3	1	1	0	0	508	519	508	478	30	36	
4	1	1	0	0	511	515	514	478	30	36	
5	1	1	0	0	513	502	516	478	30	36	
6	1	1	0	0	513	504	510	479	30	36	
7	1	1	0	0	515	508	509	479	30	36	
8	1	1	0	0	511	515	510	479	30	36	
9	1	1	0	0	511	517	510	480	30	36	
10	1	1	0	0	511	521	514	480	30	36	
11	1	1	0	0	511	521	510	480	30	36	
12	1	1	0	0	514	513	503	480	30	36	
13	1	1	0	0	518	504	500	480	30	36	
14	1	1	0	0	512	503	508	481	30	36	
15	1	1	0	0	509	504	515	481	30	36	
0	1	1	0	0	507	510	511	481	30	36	
1	1	1	0	0	508	512	508	482	30	36	
2	1	1	0	0	513	513	512	482	30	36	
3	1	1	0	0	508	516	517	482	30	36	
4	1	1	0	0	507	521	510	482	30	36	
5	1	1	0	0	505	521	497	483	30	36	
6	1	1	0	0	510	511	508	483	30	36	
7	1	1	0	0	504	509	509	483	30	36	
8	1	1	0	0	502	507	507	484	30	37	
9	1	1	0	0	506	504	506	484	30	37	
10	1	1	0	0	507	504	516	484	30	37	
11	1	1	0	0	499	507	522	486	30	37	
12	1	1	0	0	510	507	519	485	30	37	
13	1	1	0	0	514	514	505	484	30	37	
14	1	1	0	0	525	519	491	486	30	37	
15	1	1	0	0	529	522	499	487	30	37	
0	1	1	0	0	524	526	501	487	30	37	
1	1	1	0	0	511	527	508	487	30	37	
2	1	1	0	0	512	525	512	487	30	37	
3	1	1	0	0	515	519	518	487	30	37	
4	1	1	0	0	512	508	534	487	30	38	
5	1	1	0	0	506	514	511	487	30	38	
6	1	1	0	0	513	515	502	487	30	38	
7	1	1	0	0	502	513	509	487	30	38	
8	1	1	0	0	501	512	511	487	30	38	
9	1	1	0	0	508	515	515	487	30	38	
10	1	1	0	0	527	525	491	487	30	38	
11	1	1	0	0	517	535	482	487	30	38	
12	1	1	0	0	504	519	504	486	30	38	
13	1	1	0	0	502	512	527	486	30	39	
14	1	1	0	0	507	515	518	486	30	39	
15	1	1	0	0	519	505	508	485	30	39	
0	1	1	0	0	515	509	508	484	30	39	
1	1	1	0	0	504	505	508	483	30	39	
2	1	1	0	0	505	508	496	482	30	39	
3	1	1	0	0	507	506	496	480	30	39	
4	1	1	0	0	503	509	502	479	30	39	
5	1	1	0	0	497	518	508	478	30	40	
6	1	1	0	0	498	501	505	476	30	40	
7	1	1	0	0	506	516	508	475	30	40	
8	1	1	0	0	500	529	507	474	30	40	
9	1	1	0	0	506	527	504	473	31	40	
10	1	1	0	0	503	519	508	472	31	40	
11	1	1	0	0	506	523	510	471	31	40	
12	1	1	0	0	504	529	510	469	31	40	
13	1	1	0	0	504	518	519	467	31	41	
14	1	1	0	0	510	526	517	467	31	41	
15	1	1	0	0	516	542	511	466	31	41	
0	1	1	0	0	517	536	514	464	31	41	
1	1	1	0	0	520	534	515	465	31	41	
2	1	1	0	0	516	533	518	464	31	41	
3	1	1	0	0	518	519	517	463	31	41	
4	1	1	0	0	515	521	515	464	31	41	
5	1	1	0	0	514	524	503	463	31	41	
6	1	1	0	0	519	508	510	464	31	41	
7	1	1	0	0	520	491	524	464	31	41	
8	1	1	0	0	521	505	523	464	31	41	
9	1	1	0	0	523	514	507	463	31	41	
10	1	1	0	0	519	522	499	464	31	41	
11	1	1	0	0	511	511	519	464	31	41	
12	1	1	0	0	514	489	510	464	31	41	
13	1	1	0	0	515	481	511	464	31	41	
14	1	1	0	0	512	497	506	465	31	41	
15	1	1	0	0	515	492	504	465	31	41	
0	1	1	0	0	517	494	510	466	31	41	
1	1	1	0	0	508	493	512	467	31	41	
2	1	1	0	0	515	481	511	467	31	41	
3	1	1	0	0	513	497	517	468	31	41	
4	1	1	0	0	508	499	509	468	31	41	
5	1	1	0	0	511	512	504	467	31	40	
6	1	1	0	0	512	497	519	467	31	40	
7	1	1	0	0	516	504	509	467	31	40	
8	1	1	0	0	525	508	504	467	31	40	
9	1	1	0	0	524	510	509	467	32	40	
10	1	1	0	0	519	515	523	467	32	40	
11	1	1	0	0	512	545	509	467	32	40	
12	1	1	0	0	510	574	493	467	32	40	
13	1	1	0	0	516	555	503	467	32	39	
14	1	1	0	0	521	533	502	466	32	39	
15	1	1	0	0	523	507	518	466	32	39	
0	1	1	0	0	517	502	529	465	32	39	
1	1	1	0	0	525	498	503	465	33	39	
2	1	1	0	0	527	500	504	464	33	39	
3	1	1	0	0	514	509	506	464	33	38	
4	1	1	0	0	508	502	513	463	33	38	
5	1	1	0	0	515	511	504	463	33	38	
6	1	1	0	0	510	536	499	462	33	38	
7	1	1	0	0	508	525	508	463	33	38	
8	1	1	0	0	504	514	521	463	33	38	
9	1	1	0	0	502	519	515	463	34	37	
10	1	1	0	0	511	508	506	463	34	37	
11	1	1	0	0	510	494	505	463	34	37	
12	1	1	0	0	499	478	515	464	34	37	
13	1	1	0	0	503	504	512	464	34	37	
14	1	1	0	0	506	507	494	464	34	37	
15	1	1	0	0	509	510	489	464	34	36	
0	1	1	0	0	513	502	503	464	34	36	
1	1	1	0	0	511	505	502	465	34	36	
2	1	1	0	0	507	525	505	466	35	36	
3	1	1	0	0	508	529	507	468	35	36	
4	1	1	0	0	503	520	509	468	35	36	
5	1	1	0	0	513	512	515	470	35	35	
6	1	1	0	0	519	523	514	472	35	35	
7	1	1	0	0	514	516	514	474	35	35	
8	1	1	0	0	504	508	511	476	35	35	
9	1	1	0	0	506	509	510	477	35	35	
10	1	1	0	0	517	510	509	479	35	35	
11	1	1	0	0	525	516	507	481	35	35	
12	1	1	0	0	520	527	508	483	35	35	
13	1	1	0	0	503	531	504	485	35	35	
14	1	1	0	0	501	529	512	487	35	35	
15	1	1	0	0	507	526	507	491	34	35	
0	1	1	0	0	514	537	507	492	34	35	
1	1	1	0	0	528	534	517	495	34	35	
2	1	1	0	0	519	533	508	497	34	35	
3	1	1	0	0	512	519	505	500	34	35	
4	1	1	0	0	504	520	504	502	34	35	
5	1	1	0	0	505	526	504	505	33	35	
6	1	1	0	0	511	526	508	508	33	35	
7	1	1	0	0	499	526	508	510	33	35	
8	1	1	0	0	492	515	508	512	33	35	
9	1	1	0	0	487	516	506	514	32	35	
10	1	1	0	0	488	519	511	515	32	35	
11	1	1	0	0	487	499	512	519	32	35	
12	1	1	0	0	495	489	510	521	31	35	
13	1	1	0	0	499	496	508	524	31	35	
14	1	1	0	0	504	501	508	526	31	35	
15	1	1	0	0	498	509	509	528	31	35	
0	1	1	0	0	503	509	510	530	31	34	
1	1	1	0	0	508	504	512	532	31	35	
2	1	1	0	0	508	499	510	533	30	35	
3	1	1	0	0	503	501	510	534	30	35	
4	1	1	0	0	498	513	509	536	30	35	
5	1	1	0	0	496	517	510	536	30	35	
6	1	1	0	0	497	519	511	536	30	35	
7	1	1	0	0	502	522	512	537	29	35	
8	1	1	0	0	506	516	510	537	29	35	
9	1	1	0	0	509	507	512	537	29	35	
10	1	1	0	0	516	513	512	537	29	36	
11	1	1	0	0	519	526	511	538	28	36	
12	1	1	0	0	515	522	508	537	28	36	
13	1	1	0	0	515	521	511	536	28	37	
14	1	1	0	0	513	519	510	536	27	37	
15	1	1	0	0	507	523	513	535	27	37	
0	1	1	0	0	509	525	512	533	27	38	
1	1	1	0	0	510	520	512	531	26	38	
2	1	1	0	0	510	517	511	529	26	38	
3	1	1	0	0	513	505	512	528	26	38	
4	1	1	0	0	514	507	510	527	25	39	
5	1	1	0	0	518	512	509	526	25	39	
6	1	1	0	0	527	504	512	526	25	39	
7	1	1	0	0	527	508	510	525	25	39	
8	1	1	0	0	527	501	510	524	24	39	
9	1	1	0	0	528	491	509	523	24	40	
10	1	1	0	0	526	494	509	523	24	40	
11	1	1	0	0	520	495	505	521	24	40	
12	1	1	0	0	515	492	507	521	24	40	
13	1	1	0	0	512	503	507	520	24	40	
14	1	1	0	0	504	505	505	519	24	40	
15	1	1	0	0	507	498	507	518	24	40	
0	1	1	0	0	505	497	507	517	24	40	
1	1	1	0	0	501	495	508	515	24	41	
2	1	1	0	0	500	491	505	515	24	41	
3	1	1	0	0	504	492	505	513	24	41	
4	1	1	0	0	499	498	505	512	24	41	
5	1	1	0	0	494	508	507	511	24	41	
6	1	1	0	0	499	509	505	510	24	41	
7	1	1	0	0	497	509	508	508	24	41	
8	1	1	0	0	501	517	510	507	24	41	
9	1	1	0	0	502	515	508	505	25	42	
10	1	1	0	0	503	518	508	503	25	42	
11	1	1	0	0	504	518	511	502	25	42	
12	1	1	0	0	504	523	509	500	25	42	
13	1	1	0	0	511	523	508	499	25	42	
14	1	1	0	0	510	523	511	498	25	42	
15	1	1	0	0	513	523	512	497	25	42	
0	1	1	0	0	516	525	512	497	25	42	
1	1	1	0	0	518	519	515	496	26	42	
2	1	1	0	0	518	528	512	496	26	42	
3	1	1	0	0	520	527	515	495	26	42	
4	1	1	0	0	520	527	513	495	26	42	
5	1	1	0	0	515	522	512	494	27	42	
6	1	1	0	0	516	526	512	495	27	42	
7	1	1	0	0	513	532	513	494	27	41	
8	1	1	0	0	518	528	512	494	27	41	
9	1	1	0	0	517	527	510	494	27	41	
10	1	1	0	0	519	523	511	494	28	41	
11	1	1	0	0	517	520	511	495	28	41	
12	1	1	0	0	512	518	510	495	28	41	
13	1	1	0	0	513	519	510	496	28	40	
14	1	1	0	0	514	516	512	495	29	40	
15	1	1	0	0	513	515	507	495	29	40	
0	1	1	0	0	514	511	509	495	29	40	
1	1	1	0	0	508	509	506	495	29	40	
2	1	1	0	0	509	512	506	495	29	40	
3	1	1	0	0	508	508	507	494	30	40	
4	1	1	0	0	508	502	508	493	30	39	
5	1	1	0	0	508	499	509	493	30	39	
6	1	1	0	0	507	504	508	493	30	39	
7	1	1	0	0	511	503	508	493	30	39	
8	1	1	0	0	511	496	510	492	30	39	
9	1	1	0	0	505	494	507	492	31	39	
10	1	1	0	0	507	506	507	490	31	39	
11	1	1	0	0	504	506	508	489	31	39	
12	1	1	0	0	504	507	505	489	31	39	
13	1	1	0	0	512	517	507	488	31	39	
14	1	1	0	0	511	518	508	487	31	39	
15	1	1	0	0	508	518	509	486	31	39	
0	1	1	0	0	508	522	508	485	32	39	
1	1	1	0	0	512	528	510	483	32	39	
2	1	1	0	0	513	529	511	482	32	39	
3	1	1	0	0	515	522	511	481	32	39	
4	1	1	0	0	519	519	509	480	32	39	
5	1	1	0	0	518	510	506	480	32	39	
6	1	1	0	0	512	513	507	480	32	39	
7	1	1	0	0	511	516	508	479	32	39	
8	1	1	0	0	517	505	512	479	32	39	
9	1	1	0	0	516	497	513	478	32	39	
10	1	1	0	0	519	497	511	476	32	39	
11	1	1	0	0	518	500	509	476	32	39	
12	1	1	0	0	512	510	507	476	32	39	
13	1	1	0	0	504	526	503	475	32	39	
14	1	1	0	0	504	521	506	474	32	39	
15	1	1	0	0	506	510	508	474	32	39	
0	1	1	0	0	513	503	508	473	32	40	
1	1	1	0	0	515	504	509	473	32	40	
2	1	1	0	0	510	509	508	473	32	40	
3	1	1	0	0	512	512	508	474	32	40	
4	1	1	0	0	511	515	509	474	32	40	
5	1	1	0	0	502	515	510	475	32	40	
6	1	1	0	0	507	499	513	474	32	40	
7	1	1	0	0	512	496	510	474	31	40	
8	1	1	0	0	511	517	507	475	31	40	
9	1	1	0	0	508	529	509	475	31	40	
10	1	1	0	0	508	527	514	474	31	40	
11	1	1	0	0	515	530	509	475	31	40	
12	1	1	0	0	518	524	505	477	31	40	
13	1	1	0	0	510	519	504	476	31	40	
14	1	1	0	0	506	513	502	477	31	40	
15	1	1	0	0	512	510	507	478	31	40	
0	1	1	0	0	511	512	510	478	31	40	
1	1	1	0	0	507	516	510	479	31	40	
2	1	1	0	0	504	519	510	479	31	40	
3	1	1	0	0	504	516	512	479	31	40	
4	1	1	0	0	511	516	512	480	31	40	
5	1	1	0	0	514	519	513	480	31	40	
6	1	1	0	0	514	522	511	480	31	40	
7	1	1	0	0	509	520	513	481	31	40	
8	1	1	0	0	510	523	510	481	31	39	
9	1	1	0	0	516	515	512	482	31	39	
10	1	1	0	0	521	512	511	483	31	39	
11	1	1	0	0	518	514	508	483	31	39	
12	1	1	0	0	515	518	507	483	31	39	
13	1	1	0	0	509	515	512	484	32	39	
14	1	1	0	0	509	514	515	484	31	39	
15	1	1	0	0	508	519	513	484	31	39	
0	1	1	0	0	513	519	509	483	32	39	
1	1	1	0	0	525	517	503	483	32	39	
2	1	1	0	0	518	523	505	482	31	39	
3	1	1	0	0	505	515	509	484	31	39	
4	1	1	0	0	507	510	511	483	32	39	
5	1	1	0	0	510	506	510	483	32	39	
6	1	1	0	0	510	507	509	483	32	39	
7	1	1	0	0	508	511	511	483	32	39	
8	1	1	0	0	511	519	511	483	32	39	
9	1	1	0	0	508	522	509	482	32	39	
10	1	1	0	0	508	517	505	481	31	39	
11	1	1	0	0	508	516	507	481	31	39	
12	1	1	0	0	508	511	509	480	31	39	
13	1	1	0	0	511	512	507	480	31	39	
14	1	1	0	0	506	514	506	481	31	39	
15	1	1	0	0	506	515	504	480	31	39	
0	1	1	0	0	508	505	511	480	31	39	
1	1	1	0	0	505	498	513	480	31	39	
2	1	1	0	0	512	499	508	479	31	39	
3	1	1	0	0	515	506	506	480	31	39	
4	1	1	0	0	514	515	507	479	31	39	
5	1	1	0	0	516	523	511	479	31	39	
6	1	1	0	0	513	521	514	478	31	39	
7	1	1	0	0	515	519	513	478	31	39	
8	1	1	0	0	512	525	508	478	31	39	
9	1	1	0	0	511	530	508	478	31	39	
10	1	1	0	0	508	525	505	477	31	39	
11	1	1	0	0	502	517	508	478	31	39	
12	1	1	0	0	509	504	511	479	31	39	
13	1	1	0	0	511	503	511	478	31	38	
14	1	1	0	0	508	505	513	478	31	38	
15	1	1	0	0	508	520	511	479	31	38	
0	1	1	0	0	508	528	509	479	31	38	
1	1	1	0	0	511	527	507	479	31	38	
2	1	1	0	0	515	521	505	478	31	38	
3	1	1	0	0	515	513	505	478	31	38	
4	1	1	0	0	519	511	503	478	31	38	
5	1	1	0	0	521	505	504	478	31	38	
6	1	1	0	0	519	512	507	479	31	38	
7	1	1	0	0	511	518	513	479	31	38	
8	1	1	0	0	504	521	512	479	31	38	
9	1	1	0	0	511	520	514	478	31	38	
10	1	1	0	0	513	538	514	479	31	38	
11	1	1	0	0	503	551	512	479	31	38	
12	1	1	0	0	502	534	506	479	31	38	
13	1	1	0	0	526	507	505	479	31	38	
14	1	1	0	0	519	496	511	478	31	38	
15	1	1	0	0	511	498	513	478	31	38	
0	1	1	0	0	503	496	510	478	31	38	
1	1	1	0	0	511	491	510	478	31	38	
2	1	1	0	0	511	483	507	478	31	38	
3	1	1	0	0	504	495	507	478	31	38	
4	1	1	0	0	505	495	508	478	31	38	
5	1	1	0	0	508	507	504	478	31	38	
6	1	1	0	0	507	508	508	479	31	38	
7	1	1	0	0	504	517	508	479	31	38	
8	1	1	0	0	504	518	509	480	31	38	
9	1	1	0	0	505	508	508	479	31	38	
10	1	1	0	0	506	516	505	479	31	38	
11	1	1	0	0	505	528	505	479	31	38	
12	1	1	0	0	515	516	508	479	31	38	
13	1	1	0	0	514	506	511	480	31	38	
14	1	1	0	0	513	504	509	480	31	38	
15	1	1	0	0	524	517	508	480	31	38	
0	1	1	0	0	515	517	507	480	31	38	
1	1	1	0	0	508	519	509	480	31	38	
2	1	1	0	0	507	514	511	481	31	38	
3	1	1	0	0	518	512	511	481	31	38	
4	1	1	0	0	490	517	514	481	31	38	
5	1	1	0	0	498	508	515	481	31	38	
6	1	1	0	0	506	502	511	481	31	38	
7	1	1	0	0	508	499	510	481	31	38	
8	1	1	0	0	511	518	506	481	31	38	
9	1	1	0	0	509	523	505	480	31	38	
10	1	1	0	0	504	516	505	481	31	38	
11	1	1	0	0	508	513	504	481	31	38	
12	1	1	0	0	506	508	506	481	31	38	
13	1	1	0	0	511	507	508	481	31	38	
14	1	1	0	0	511	513	510	481	31	38	
15	1	1	0	0	510	503	513	481	31	38	
0	1	1	0	0	517	494	513	480	31	38	
1	1	1	0	0	511	506	511	480	31	38	
2	1	1	0	0	511	511	511	480	31	38	
3	1	1	0	0	502	529	513	480	31	38	
4	1	1	0	0	500	528	510	479	31	38	
5	1	1	0	0	521	523	507	479	31	38	
6	1	1	0	0	506	523	511	478	31	38	
7	1	1	0	0	508	517	513	478	31	38	
8	1	1	0	0	519	518	510	478	31	38	
9	1	1	0	0	516	504	511	477	31	37	
10	1	1	0	0	511	506	512	476	31	37	
11	1	1	0	0	510	501	509	476	31	37	
12	1	1	0	0	506	505	502	476	31	37	
13	1	1	0	0	511	512	505	475	31	37	
14	1	1	0	0	513	513	506	475	31	37	
15	1	1	0	0	497	507	511	474	31	37	
0	1	1	0	0	504	503	509	473	31	37	
1	1	1	0	0	515	502	510	473	31	37	
2	1	1	0	0	512	511	510	473	31	37	
3	1	1	0	0	514	511	510	472	31	37	
4	1	1	0	0	516	516	510	472	31	37	
5	1	1	0	0	515	525	511	472	31	37	
6	1	1	0	0	512	515	510	472	31	37	
7	1	1	0	0	514	514	510	472	31	37	
8	1	1	0	0	517	519	507	473	31	37	
9	1	1	0	0	522	513	509	473	31	37	
10	1	1	0	0	521	509	506	472	31	37	
11	1	1	0	0	511	504	507	472	31	37	
12	1	1	0	0	511	506	508	472	31	37	
13	1	1	0	0	508	510	510	472	31	37	
14	1	1	0	0	509	512	510	472	31	37	
15	1	1	0	0	504	519	509	472	31	37	
0	1	1	0	0	505	523	508	473	31	37	
1	1	1	0	0	494	515	511	473	31	37	
2	1	1	0	0	502	510	513	473	31	37	
3	1	1	0	0	508	505	513	474	31	37	
4	1	1	0	0	509	501	510	475	31	37	
5	1	1	0	0	504	509	503	474	31	37	
6	1	1	0	0	504	522	501	475	31	37	
7	1	1	0	0	510	517	504	474	31	37	
8	1	1	0	0	506	512	511	474	31	37	
9	1	1	0	0	507	517	510	473	30	37	
10	1	1	0	0	512	522	510	473	30	37	
11	1	1	0	0	513	523	508	474	30	37	
12	1	1	0	0	512	513	510	474	30	37	
13	1	1	0	0	514	507	512	474	30	36	
14	1	1	0	0	515	504	514	475	30	36	
15	1	1	0	0	514	512	510	475	30	36	
0	1	1	0	0	513	512	511	475	30	36	
1	1	1	0	0	511	510	508	475	30	36	
2	1	1	0	0	508	506	505	475	30	36	
3	1	1	0	0	504	519	503	474	30	36	
4	1	1	0	0	503	515	507	474	30	36	
5	1	1	0	0	501	515	508	473	30	36	
6	1	1	0	0	498	508	511	473	30	36	
7	1	1	0	0	503	513	509	473	30	36	
8	1	1	0	0	508	511	510	473	30	36	
9	1	1	0	0	507	514	505	473	30	36	
10	1	1	0	0	507	515	504	473	30	36	
11	1	1	0	0	509	504	507	473	30	36	
12	1	1	0	0	510	487	509	472	30	36	
13	1	1	0	0	507	499	510	473	30	36	
14	1	1	0	0	494	512	511	472	30	36	
15	1	1	0	0	494	521	507	472	30	36	
0	1	1	0	0	502	519	510	471	29	36	
1	1	1	0	0	504	522	512	470	29	36	
2	1	1	0	0	512	523	510	469	29	36	
3	1	1	0	0	515	524	509	470	29	36	
4	1	1	0	0	511	522	510	469	29	36	
5	1	1	0	0	511	522	510	469	29	36	
6	1	1	0	0	513	521	509	470	29	36	
7	1	1	0	0	516	520	510	469	29	36	
8	1	1	0	0	520	515	511	468	29	36	
9	1	1	0	0	516	511	510	468	29	36	
10	1	1	0	0	516	504	512	468	29	36	
11	1	1	0	0	515	508	510	468	29	36	
12	1	1	0	0	509	513	508	468	29	36	
13	1	1	0	0	508	515	510	467	29	36	
14	1	1	0	0	511	511	510	467	29	36	
15	1	1	0	0	508	512	510	467	29	36	
0	1	1	0	0	510	515	509	468	29	36	
1	1	1	0	0	513	513	509	468	29	36	
2	1	1	0	0	510	513	511	468	29	36	
3	1	1	0	0	509	514	512	469	29	36	
4	1	1	0	0	512	514	511	468	29	36	
5	1	1	0	0	508	511	508	469	29	36	
6	1	1	0	0	514	511	507	469	29	36	
7	1	1	0	0	510	516	511	468	29	36	
8	1	1	0	0	510	523	513	469	29	36	
9	1	1	0	0	512	518	508	469	29	36	
10	1	1	0	0	513	511	510	469	29	36	
11	1	1	0	0	512	513	510	470	29	36	
12	1	1	0	0	504	510	511	471	29	36	
13	1	1	0	0	510	509	510	472	29	36	
14	1	1	0	0	510	511	507	472	29	36	
15	1	1	0	0	509	517	505	472	29	36	
0	1	1	0	0	510	517	504	472	29	37	
1	1	1	0	0	510	508	508	473	29	37	
2	1	1	0	0	511	511	509	473	29	37	
3	1	1	0	0	509	522	508	473	29	37	
4	1	1	0	0	508	511	511	474	29	37	
5	1	1	0	0	519	496	511	474	29	37	
6	1	1	0	0	513	507	512	474	29	37	
7	1	1	0	0	508	512	509	475	29	37	
8	1	1	0	0	514	508	507	475	29	37	
9	1	1	0	0	511	506	507	476	29	37	
10	1	1	0	0	509	510	507	476	29	37	
11	1	1	0	0	506	517	508	476	29	37	
12	1	1	0	0	506	515	511	476	29	37	
13	1	1	0	0	502	519	510	475	29	37	
14	1	1	0	0	515	518	512	476	29	37	
15	1	1	0	0	512	516	512	475	29	37	
0	1	1	0	0	510	516	513	475	29	37	
1	1	1	0	0	509	517	511	476	29	37	
2	1	1	0	0	509	517	511	475	29	37	
3	1	1	0	0	504	519	509	476	29	37	
4	1	1	0	0	512	522	510	476	29	37	
5	1	1	0	0	512	513	511	476	29	37	
6	1	1	0	0	512	514	512	476	29	37	
7	1	1	0	0	515	515	511	476	29	37	
8	1	1	0	0	510	519	509	476	29	37	
9	1	1	0	0	512	518	509	476	29	37	
10	1	1	0	0	510	518	508	476	29	37	
11	1	1	0	0	512	518	511	476	29	37	
12	1	1	0	0	511	516	510	476	29	37	
13	1	1	0	0	512	514	513	476	29	37	
14	1	1	0	0	510	519	510	476	29	37	
15	1	1	0	0	508	510	510	477	29	37	
0	1	1	0	0	510	510	507	477	29	37	
1	1	1	0	0	512	509	508	478	29	37	
2	1	1	0	0	515	511	507	478	29	37	
3	1	1	0	0	512	510	507	478	29	37	
4	1	1	0	0	508	512	508	478	29	37	
5	1	1	0	0	510	511	507	478	29	37	
6	1	1	0	0	511	511	507	477	29	37	
7	1	1	0	0	513	512	509	478	29	37	
8	1	1	0	0	510	515	510	477	29	37	
9	1	1	0	0	511	516	509	478	29	37	
10	1	1	0	0	511	514	508	478	29	37	
11	1	1	0	0	516	506	509	479	29	37	
12	1	1	0	0	511	503	511	480	29	37	
13	1	1	0	0	511	501	509	479	29	37	
14	1	1	0	0	509	509	510	480	28	37	
15	1	1	0	0	508	514	508	480	28	37	
0	1	1	0	0	508	516	508	480	28	37	
1	1	1	0	0	512	513	508	480	28	37	
2	1	1	0	0	512	510	508	480	28	37	
3	1	1	0	0	512	513	508	480	28	37	
4	1	1	0	0	508	514	508	480	28	36	
5	1	1	0	0	508	510	508	480	28	36	
6	1	1	0	0	509	507	507	480	28	36	
7	1	1	0	0	509	509	508	480	28	36	
8	1	1	0	0	508	510	510	480	28	36	
9	1	1	0	0	507	512	507	480	28	36	
10	1	1	0	0	510	509	511	481	28	36	
11	1	1	0	0	508	509	509	481	28	36	
12	1	1	0	0	508	511	510	481	28	36	
13	1	1	0	0	509	513	509	481	28	36	
14	1	1	0	0	511	514	508	482	28	36	
15	1	1	0	0	508	514	511	481	28	36	
0	1	1	0	0	508	519	509	483	28	36	
1	1	1	0	0	508	519	510	482	28	36	
2	1	1	0	0	509	519	508	482	28	36	
3	1	1	0	0	513	514	509	483	28	36	
4	1	1	0	0	510	513	508	483	28	36	
5	1	1	0	0	509	513	509	484	28	36	
6	1	1	0	0	512	514	508	485	28	36	
7	1	1	0	0	512	513	509	484	28	36	
8	1	1	0	0	511	516	508	485	28	36	
9	1	1	0	0	511	513	510	484	28	36	
10	1	1	0	0	511	513	510	485	28	36	
11	1	1	0	0	513	513	509	485	28	36	
12	1	1	0	0	513	515	508	486	27	36	
13	1	1	0	0	510	517	509	487	28	36	
14	1	1	0	0	511	518	512	487	28	36	
15	1	1	0	0	510	516	510	487	28	36	
0	1	1	0	0	516	513	509	488	28	36	
1	1	1	0	0	511	512	513	488	28	36	
2	1	1	0	0	511	512	511	488	28	36	
3	1	1	0	0	512	514	508	488	28	36	
4	1	1	0	0	507	512	507	489	28	36	
5	1	1	0	0	501	519	510	489	28	36	
6	1	1	0	0	500	517	511	489	28	36	
7	1	1	0	0	506	513	506	489	28	36	
8	1	1	0	0	512	512	510	490	28	36	
9	1	1	0	0	516	515	518	490	28	36	
10	1	1	0	0	508	514	510	491	28	36	
11	1	1	0	0	513	516	503	491	28	36	
12	1	1	0	0	512	515	504	491	28	36	
13	1	1	0	0	512	506	512	491	28	36	
14	1	1	0	0	510	510	511	491	28	36	
15	1	1	0	0	503	517	507	491	28	36	
0	1	1	0	0	505	519	500	491	28	36	
1	1	1	0	0	507	519	504	491	28	36	
2	1	1	0	0	512	512	521	491	28	36	
3	1	1	0	0	508	512	534	492	28	36	
4	1	1	0	0	513	516	508	492	28	36	
5	1	1	0	0	519	514	498	492	28	36	
6	1	1	0	0	512	518	510	494	28	36	
7	1	1	0	0	504	522	521	493	28	36	
8	1	1	0	0	514	517	510	494	28	36	
9	1	1	0	0	523	516	497	494	28	36	
10	1	1	0	0	513	507	504	494	28	36	
11	1	1	0	0	510	506	511	495	28	36	
12	1	1	0	0	511	518	510	495	28	36	
13	1	1	0	0	515	508	513	495	28	36	
14	1	1	0	0	500	504	513	495	28	36	
15	1	1	0	0	498	503	520	495	28	36	
0	1	1	0	0	499	508	518	496	28	36	
1	1	1	0	0	509	507	499	496	28	36	
2	1	1	0	0	518	503	499	497	28	36	
3	1	1	0	0	532	505	505	497	28	36	
4	1	1	0	0	505	507	503	497	28	36	
5	1	1	0	0	488	509	510	498	29	36	
6	1	1	0	0	498	504	521	497	29	36	
7	1	1	0	0	512	501	504	497	29	37	
8	1	1	0	0	502	511	508	497	29	37	
9	1	1	0	0	503	512	509	498	29	37	
10	1	1	0	0	505	525	509	497	29	37	
11	1	1	0	0	508	523	504	497	29	37	
12	1	1	0	0	524	527	507	498	29	37	
13	1	1	0	0	543	520	501	499	29	37	
14	1	1	0	0	543	519	498	498	29	37	
15	1	1	0	0	541	520	511	498	29	37	
0	1	1	0	0	535	518	525	497	29	37	
1	1	1	0	0	544	522	517	497	29	37	
2	1	1	0	0	516	520	524	497	29	38	
3	1	1	0	0	492	524	511	496	30	38	
4	1	1	0	0	475	535	494	496	30	38	
5	1	1	0	0	472	529	496	496	30	38	
6	1	1	0	0	486	513	500	496	30	38	
7	1	1	0	0	496	500	512	496	30	38	
8	1	1	0	0	499	496	507	495	30	38	
9	1	1	0	0	496	497	500	496	30	38	
10	1	1	0	0	492	485	514	494	30	38	
11	1	1	0	0	504	499	511	494	30	39	
12	1	1	0	0	524	502	511	494	30	39	
13	1	1	0	0	519	505	502	492	30	39	
14	1	1	0	0	535	506	501	492	30	39	
15	1	1	0	0	523	503	510	491	30	39	
0	1	1	0	0	501	518	512	491	31	39	
1	1	1	0	0	505	526	518	489	31	39	
2	1	1	0	0	515	527	517	489	31	39	
3	1	1	0	0	523	512	522	488	31	40	
4	1	1	0	0	520	524	521	487	31	40	
5	1	1	0	0	517	515	513	486	31	40	
6	1	1	0	0	513	526	513	485	31	40	
7	1	1	0	0	508	525	515	483	31	40	
8	1	1	0	0	505	546	507	482	31	41	
9	1	1	0	0	504	540	510	481	31	41	
10	1	1	0	0	512	533	518	480	31	41	
11	1	1	0	0	510	546	522	480	31	41	
12	1	1	0	0	504	569	521	480	31	41	
13	1	1	0	0	511	562	492	480	32	41	
14	1	1	0	0	521	533	493	479	31	41	
15	1	1	0	0	521	514	497	478	32	41	
0	1	1	0	0	511	528	507	478	32	41	
1	1	1	0	0	503	537	519	478	32	41	
2	1	1	0	0	511	519	526	477	32	42	
3	1	1	0	0	519	521	507	476	32	42	
4	1	1	0	0	519	532	494	476	32	42	
5	1	1	0	0	511	531	502	476	32	42	
6	1	1	0	0	501	553	499	477	32	41	
7	1	1	0	0	508	526	501	477	32	41	
8	1	1	0	0	519	499	510	478	32	41	
9	1	1	0	0	518	492	516	477	32	41	
10	1	1	0	0	518	509	515	478	32	41	
11	1	1	0	0	527	485	515	478	32	41	
12	1	1	0	0	529	467	520	479	32	41	
13	1	1	0	0	521	481	519	479	32	41	
14	1	1	0	0	516	523	505	479	32	41	
15	1	1	0	0	517	532	505	480	33	41	
0	1	1	0	0	525	522	513	480	33	41	
1	1	1	0	0	527	502	518	481	33	40	
2	1	1	0	0	530	477	519	481	33	40	
3	1	1	0	0	527	487	506	482	33	40	
4	1	1	0	0	530	504	504	484	33	40	
5	1	1	0	0	524	504	508	484	34	40	
6	1	1	0	0	519	503	506	486	34	40	
7	1	1	0	0	518	511	505	487	34	39	
8	1	1	0	0	520	525	510	487	34	39	
9	1	1	0	0	521	524	509	487	34	39	
10	1	1	0	0	519	530	506	489	34	39	
11	1	1	0	0	523	525	498	490	34	39	
12	1	1	0	0	535	489	513	491	34	38	
13	1	1	0	0	531	488	527	492	35	38	
14	1	1	0	0	521	504	531	493	35	38	
15	1	1	0	0	509	521	515	493	35	37	
0	1	1	0	0	504	516	506	494	35	37	
1	1	1	0	0	510	527	502	495	35	37	
2	1	1	0	0	506	523	505	496	35	37	
3	1	1	0	0	509	527	498	497	35	36	
4	1	1	0	0	513	532	499	499	35	36	
5	1	1	0	0	509	520	504	499	35	36	
6	1	1	0	0	502	516	509	499	35	36	
7	1	1	0	0	499	508	513	500	35	35	
8	1	1	0	0	496	505	509	501	35	35	
9	1	1	0	0	500	516	505	502	35	35	
10	1	1	0	0	513	531	504	503	35	34	
11	1	1	0	0	512	514	506	504	35	34	
12	1	1	0	0	514	489	508	505	35	34	
13	1	1	0	0	511	490	512	506	35	34	
14	1	1	0	0	507	487	509	507	35	33	
15	1	1	0	0	501	505	508	507	35	33	
0	1	1	0	0	504	513	505	508	35	33	
1	1	1	0	0	514	504	507	508	34	33	
2	1	1	0	0	512	495	508	508	34	32	
3	1	1	0	0	503	490	509	510	34	32	
4	1	1	0	0	496	517	507	511	33	32	
5	1	1	0	0	494	487	506	513	33	32	
6	1	1	0	0	495	496	506	514	33	32	
7	1	1	0	0	488	494	506	516	32	31	
8	1	1	0	0	490	495	507	518	32	31	
9	1	1	0	0	491	505	505	520	31	31	
10	1	1	0	0	493	515	505	522	31	31	
11	1	1	0	0	493	522	504	524	30	31	
12	1	1	0	0	491	526	505	527	30	30	
13	1	1	0	0	487	527	507	529	30	30	
14	1	1	0	0	486	516	506	532	29	30	
15	1	1	0	0	493	501	508	536	29	30	
0	1	1	0	0	496	501	507	539	29	30	
1	1	1	0	0	492	510	507	543	28	30	
2	1	1	0	0	483	514	508	546	28	30	
3	1	1	0	0	483	523	507	551	28	30	
4	1	1	0	0	480	529	509	553	28	30	
5	1	1	0	0	487	537	511	557	28	30	
6	1	1	0	0	495	559	510	559	27	30	
7	1	1	0	0	495	561	513	561	27	31	
8	1	1	0	0	500	563	512	563	27	31	
9	1	1	0	0	501	549	518	563	27	31	
10	1	1	0	0	509	538	516	564	26	31	
11	1	1	0	0	516	520	515	565	26	32	
12	1	1	0	0	515	501	517	563	26	32	
13	1	1	0	0	516	499	518	563	25	32	
14	1	1	0	0	515	499	515	561	25	32	
15	1	1	0	0	517	499	513	559	25	33	
0	1	1	0	0	518	501	511	557	24	33	
1	1	1	0	0	515	500	511	555	24	34	
2	1	1	0	0	520	500	512	553	24	34	
3	1	1	0	0	529	501	511	550	24	35	
4	1	1	0	0	527	506	510	548	23	35	
5	1	1	0	0	527	510	508	546	23	36	
6	1	1	0	0	533	512	507	543	23	36	
7	1	1	0	0	544	523	507	541	23	37	
8	1	1	0	0	563	507	511	539	23	37	
9	1	1	0	0	569	493	511	536	23	38	
10	1	1	0	0	578	483	512	533	23	39	
11	1	1	0	0	569	491	511	530	23	39	
12	1	1	0	0	567	488	511	527	23	40	
13	1	1	0	0	564	482	507	524	23	41	
14	1	1	0	0	566	477	504	521	23	41	
15	1	1	0	0	590	478	501	518	23	42	
0	1	1	0	0	617	474	500	515	23	42	
1	1	1	0	0	614	470	501	512	23	42	
2	1	1	0	0	606	478	499	509	23	43	
3	1	1	0	0	587	468	500	507	23	43	
4	1	1	0	0	622	461	500	505	23	43	
5	1	1	0	0	608	478	499	503	23	44	
6	1	1	0	0	554	495	503	502	23	44	
7	1	1	0	0	535	504	508	499	23	44	
8	1	1	0	0	559	519	512	497	23	44	
9	1	1	0	0	582	526	513	496	23	44	
10	1	1	0	0	517	527	515	494	23	44	
11	1	1	0	0	399	527	516	492	23	45	
12	1	1	0	0	302	531	518	490	24	45	
13	1	1	0	0	275	527	519	489	24	45	
14	1	1	0	0	258	534	518	488	24	45	
15	1	1	0	0	236	537	515	487	24	45	
0	1	1	0	0	247	524	516	487	24	45	
1	1	1	0	0	276	515	513	485	24	45	
2	1	1	0	0	311	518	515	485	24	45	
3	1	1	0	0	352	509	514	486	25	45	
4	1	1	0	0	391	510	514	486	25	45	
5	1	1	0	0	433	516	513	487	25	44	
6	1	1	0	0	467	519	514	488	26	44	
7	1	1	0	0	499	524	512	489	26	44	
8	1	1	0	0	520	530	509	492	26	44	
9	1	1	0	0	540	535	511	495	26	43	
10	1	1	0	0	549	548	511	497	27	43	
11	1	1	0	0	560	560	509	499	27	43	
12	1	1	0	0	571	551	510	502	27	42	
13	1	1	0	0	576	537	512	504	28	42	
14	1	1	0	0	577	536	512	507	28	42	
15	1	1	0	0	575	531	512	510	28	42	
0	1	1	0	0	574	523	514	510	29	41	
1	1	1	0	0	570	519	511	512	29	41	
2	1	1	0	0	565	520	509	513	29	41	
3	1	1	0	0	555	524	509	515	30	40	
4	1	1	0	0	552	521	507	516	30	40	
5	1	1	0	0	547	518	508	516	30	40	
6	1	1	0	0	547	509	509	518	31	40	
7	1	1	0	0	539	524	505	517	31	39	
8	1	1	0	0	536	525	505	518	31	39	
9	1	1	0	0	534	523	505	518	31	39	
10	1	1	0	0	533	520	506	518	32	39	
11	1	1	0	0	530	517	505	516	32	39	
12	1	1	0	0	527	520	507	515	32	39	
13	1	1	0	0	527	516	507	514	32	39	
14	1	1	0	0	529	512	509	512	32	39	
15	1	1	0	0	523	520	507	511	32	39	
0	1	1	0	0	522	516	509	510	32	39	
1	1	1	0	0	520	513	510	509	33	39	
2	1	1	0	0	521	513	511	508	33	38	
3	1	1	0	0	526	511	511	507	33	38	
4	1	1	0	0	520	492	510	505	33	39	
5	1	1	0	0	518	489	505	504	33	39	
6	1	1	0	0	515	502	506	503	33	39	
7	1	1	0	0	508	512	505	501	33	39	
8	1	1	0	0	512	520	502	500	33	39	
9	1	1	0	0	518	528	508	498	33	39	
10	1	1	0	0	520	526	509	497	33	39	
11	1	1	0	0	521	521	510	497	33	39	
12	1	1	0	0	519	524	511	496	32	39	
13	1	1	0	0	521	524	512	496	32	39	
14	1	1	0	0	519	522	510	496	32	39	
15	1	1	0	0	517	518	512	496	32	39	
0	1	1	0	0	519	515	510	496	32	39	
1	1	1	0	0	518	510	509	496	32	39	
2	1	1	0	0	519	513	509	495	32	39	
3	1	1	0	0	515	512	508	496	32	39	
4	1	1	0	0	516	514	510	495	32	39	
5	1	1	0	0	511	520	507	496	32	39	
6	1	1	0	0	511	517	509	496	31	39	
7	1	1	0	0	515	509	510	497	31	39	
8	1	1	0	0	516	514	509	498	31	39	
9	1	1	0	0	512	515	507	499	31	39	
10	1	1	0	0	511	508	508	499	31	39	
11	1	1	0	0	512	489	510	500	31	39	
12	1	1	0	0	516	483	509	502	31	39	
13	1	1	0	0	512	485	510	502	31	39	
14	1	1	0	0	507	497	506	503	31	39	
15	1	1	0	0	503	500	506	503	30	39	
0	1	1	0	0	505	491	507	504	30	39	
1	1	1	0	0	505	495	505	504	30	39	
2	1	1	0	0	506	508	506	506	30	39	
3	1	1	0	0	500	520	505	507	30	39	
4	1	1	0	0	504	519	510	508	30	39	
5	1	1	0	0	509	516	509	508	30	39	
6	1	1	0	0	513	517	511	510	30	39	
7	1	1	0	0	512	518	510	510	30	39	
8	1	1	0	0	511	519	510	511	30	39	
9	1	1	0	0	511	522	510	511	30	39	
10	1	1	0	0	511	527	509	511	30	39	
11	1	1	0	0	504	524	510	512	30	39	
12	1	1	0	0	508	508	512	512	30	39	
13	1	1	0	0	510	508	511	512	30	39	
14	1	1	0	0	508	515	510	513	30	39	
15	1	1	0	0	510	516	506	513	30	39	
0	1	1	0	0	510	519	508	513	30	39	
1	1	1	0	0	509	523	509	513	30	39	
2	1	1	0	0	512	523	508	514	30	39	
3	1	1	0	0	510	519	506	514	29	39	
4	1	1	0	0	511	518	508	514	30	39	
5	1	1	0	0	507	522	506	514	30	39	
6	1	1	0	0	507	526	508	513	29	39	
7	1	1	0	0	509	519	510	513	29	39	
8	1	1	0	0	513	517	508	513	29	39	
9	1	1	0	0	513	504	511	513	29	39	
10	1	1	0	0	515	502	508	514	29	39	
11	1	1	0	0	512	508	510	513	29	39	
12	1	1	0	0	509	512	510	513	29	38	
13	1	1	0	0	513	508	507	513	29	38	
14	1	1	0	0	509	515	508	513	29	38	
15	1	1	0	0	504	513	508	512	29	38	
0	1	1	0	0	509	512	512	512	29	38	
1	1	1	0	0	514	499	510	511	29	38	
2	1	1	0	0	516	496	511	511	29	38	
3	1	1	0	0	510	505	509	510	29	38	
4	1	1	0	0	508	509	509	510	29	38	
5	1	1	0	0	509	510	509	510	29	38	
6	1	1	0	0	511	507	508	510	29	38	
7	1	1	0	0	510	515	506	510	29	38	
8	1	1	0	0	511	517	510	509	29	38	
9	1	1	0	0	514	516	512	510	29	38	
10	1	1	0	0	516	517	508	509	29	38	
11	1	1	0	0	512	502	509	508	29	38	
12	1	1	0	0	514	494	509	508	29	37	
13	1	1	0	0	512	495	509	507	29	37	
14	1	1	0	0	506	508	507	507	29	37	
15	1	1	0	0	507	519	508	507	29	37	
0	1	1	0	0	505	525	507	507	29	37	
1	1	1	0	0	512	522	507	506	29	37	
2	1	1	0	0	511	517	511	506	30	37	
3	1	1	0	0	508	518	509	507	30	37	
4	1	1	0	0	506	520	508	506	30	37	
5	1	1	0	0	504	518	508	507	30	37	
6	1	1	0	0	509	508	508	506	30	37	
7	1	1	0	0	505	511	510	505	30	37	
8	1	1	0	0	507	516	509	505	30	37	
9	1	1	0	0	508	519	512	504	30	37	
10	1	1	0	0	511	518	511	504	30	37	
11	1	1	0	0	511	516	509	503	30	37	
12	1	1	0	0	510	513	509	503	30	37	
13	1	1	0	0	511	518	507	503	30	37	
14	1	1	0	0	506	518	509	502	30	37	
15	1	1	0	0	511	505	508	502	30	37	
0	1	1	0	0	511	508	506	502	30	37	
1	1	1	0	0	509	516	505	502	30	37	
2	1	1	0	0	507	514	507	500	30	37	
3	1	1	0	0	510	510	508	501	30	37	
4	1	1	0	0	511	502	508	500	30	37	
5	1	1	0	0	509	511	506	499	30	37	
6	1	1	0	0	507	516	509	499	30	37	
7	1	1	0	0	508	518	508	499	30	38	
8	1	1	0	0	509	518	509	499	30	38	
9	1	1	0	0	512	518	507	498	30	38	
10	1	1	0	0	510	511	508	499	30	38	
11	1	1	0	0	511	511	508	498	30	38	
12	1	1	0	0	511	511	511	498	30	38	
13	1	1	0	0	513	513	511	497	30	38	
14	1	1	0	0	512	516	512	498	30	38	
15	1	1	0	0	513	520	510	497	30	38	
0	1	1	0	0	512	519	512	496	30	38	
1	1	1	0	0	513	518	509	497	30	38	
2	1	1	0	0	509	519	510	496	30	38	
3	1	1	0	0	512	516	510	496	30	38	
4	1	1	0	0	514	511	511	496	30	38	
5	1	1	0	0	512	509	512	496	30	38	
6	1	1	0	0	511	519	510	497	30	38	
7	1	1	0	0	512	518	508	497	30	38	
8	1	1	0	0	515	519	508	496	30	38	
9	1	1	0	0	512	519	509	496	30	38	
10	1	1	0	0	513	518	510	496	30	38	
11	1	1	0	0	512	509	510	496	30	38	
12	1	1	0	0	514	500	510	495	30	39	
13	1	1	0	0	512	504	507	495	30	38	
14	1	1	0	0	508	508	508	496	30	39	
15	1	1	0	0	505	510	507	496	30	38	
0	1	1	0	0	507	511	510	496	30	39	
1	1	1	0	0	508	515	511	496	30	38	
2	1	1	0	0	510	521	508	496	30	39	
3	1	1	0	0	512	524	510	497	30	39	
4	1	1	0	0	508	524	510	497	30	39	
5	1	1	0	0	512	527	510	497	30	39	
6	1	1	0	0	514	529	511	496	30	39	
7	1	1	0	0	512	516	510	497	30	39	
8	1	1	0	0	513	513	511	496	30	39	
9	1	1	0	0	513	506	509	497	30	39	
10	1	1	0	0	516	505	507	497	30	39	
11	1	1	0	0	511	511	508	498	30	39	
12	1	1	0	0	510	511	509	498	30	39	
13	1	1	0	0	511	515	508	498	30	39	
14	1	1	0	0	510	519	509	499	30	39	
15	1	1	0	0	512	525	506	499	30	39	
0	1	1	0	0	512	515	511	499	30	39	
1	1	1	0	0	511	514	511	498	30	39	
2	1	1	0	0	510	515	507	498	30	39	
3	1	1	0	0	512	499	509	498	30	39	
4	1	1	0	0	515	477	510	498	30	39	
5	1	1	0	0	508	489	510	499	30	39	
6	1	1	0	0	504	497	507	499	30	38	
7	1	1	0	0	504	511	505	500	30	38	
8	1	1	0	0	502	519	507	500	30	38	
9	1	1	0	0	505	526	508	500	30	38	
10	1	1	0	0	508	525	510	500	30	38	
11	1	1	0	0	509	528	508	501	30	38	
12	1	1	0	0	515	524	508	500	30	38	
13	1	1	0	0	513	514	511	500	30	38	
14	1	1	0	0	516	512	508	501	30	38	
15	1	1	0	0	513	523	508	501	30	38	
0	1	1	0	0	510	527	507	501	30	38	
1	1	1	0	0	510	520	510	502	30	38	
2	1	1	0	0	511	517	510	502	30	38	
3	1	1	0	0	512	512	510	502	30	38	
4	1	1	0	0	514	515	508	503	30	38	
5	1	1	0	0	511	513	510	503	30	38	
6	1	1	0	0	506	512	508	503	30	38	
7	1	1	0	0	507	518	509	503	30	38	
8	1	1	0	0	510	514	508	503	30	38	
9	1	1	0	0	507	519	508	502	30	38	
10	1	1	0	0	510	514	510	502	30	38	
11	1	1	0	0	508	511	508	503	30	38	
12	1	1	0	0	508	509	507	503	30	38	
13	1	1	0	0	510	511	510	504	30	38	
14	1	1	0	0	509	510	510	504	30	38	
15	1	1	0	0	512	511	508	504	30	38	
0	1	1	0	0	513	511	510	504	30	38	
1	1	1	0	0	511	506	510	504	30	38	
2	1	1	0	0	510	508	507	504	30	38	
3	1	1	0	0	508	508	509	504	30	38	
4	1	1	0	0	511	508	511	504	30	38	
5	1	1	0	0	510	507	508	504	30	38	
6	1	1	0	0	507	507	508	504	30	38	
7	1	1	0	0	508	512	511	504	30	38	
8	1	1	0	0	508	517	509	504	30	38	
9	1	1	0	0	510	519	508	504	30	38	
10	1	1	0	0	510	521	508	504	30	38	
11	1	1	0	0	508	517	508	505	30	38	
12	1	1	0	0	507	516	508	506	30	38	
13	1	1	0	0	508	519	511	505	30	38	
14	1	1	0	0	511	519	507	505	30	38	
15	1	1	0	0	512	509	507	505	30	38	
0	1	1	0	0	511	505	509	504	30	38	
1	1	1	0	0	510	513	508	504	29	38	
2	1	1	0	0	508	517	507	504	29	38	
3	1	1	0	0	508	509	510	505	29	38	
4	1	1	0	0	513	501	510	505	29	38	
5	1	1	0	0	511	509	509	505	29	38	
6	1	1	0	0	511	510	510	505	29	38	
7	1	1	0	0	508	513	509	505	29	38	
8	1	1	0	0	513	515	511	505	29	38	
9	1	1	0	0	510	523	507	506	29	38	
10	1	1	0	0	509	519	508	505	29	38	
11	1	1	0	0	509	517	508	505	29	38	
12	1	1	0	0	512	517	508	505	29	38	
13	1	1	0	0	508	515	508	505	29	38	
14	1	1	0	0	512	503	511	505	29	38	
15	1	1	0	0	512	504	511	504	29	38	
0	1	1	0	0	507	513	511	505	29	38	
1	1	1	0	0	507	515	510	505	29	38	
2	1	1	0	0	508	514	511	504	29	38	
3	1	1	0	0	510	511	509	504	29	38	
4	1	1	0	0	510	513	510	505	29	38	
5	1	1	0	0	512	515	510	505	29	38	
6	1	1	0	0	510	503	510	504	29	38	
7	1	1	0	0	510	502	507	505	29	38	
8	1	1	0	0	506	513	508	504	29	38	
9	1	1	0	0	508	519	507	504	29	38	
10	1	1	0	0	508	514	507	504	29	38	
11	1	1	0	0	510	521	510	504	29	38	
12	1	1	0	0	511	507	510	504	29	38	
13	1	1	0	0	512	495	511	504	29	38	
14	1	1	0	0	512	508	509	504	29	38	
15	1	1	0	0	511	509	508	504	29	38	
0	1	1	0	0	511	511	506	504	29	38	
1	1	1	0	0	505	515	507	504	29	38	
2	1	1	0	0	510	512	510	504	29	38	
3	1	1	0	0	506	518	510	504	29	38	
4	1	1	0	0	510	521	508	504	29	38	
5	1	1	0	0	510	520	509	502	29	38	
6	1	1	0	0	510	520	510	503	29	38	
7	1	1	0	0	512	513	510	503	29	38	
8	1	1	0	0	511	510	510	503	29	38	
9	1	1	0	0	510	511	508	504	29	38	
10	1	1	0	0	509	511	510	504	29	38	
11	1	1	0	0	510	513	511	503	29	38	
12	1	1	0	0	508	514	509	504	29	38	
13	1	1	0	0	508	515	507	504	29	38	
14	1	1	0	0	510	518	507	504	29	38	
15	1	1	0	0	511	519	510	503	29	38	
0	1	1	0	0	508	516	510	504	29	38	
1	1	1	0	0	508	515	511	503	29	38	
2	1	1	0	0	512	515	511	503	29	38	
3	1	1	0	0	513	518	511	503	29	38	
4	1	1	0	0	513	515	512	504	29	38	
5	1	1	0	0	511	510	513	504	29	38	
6	1	1	0	0	511	504	511	504	29	38	
7	1	1	0	0	510	511	509	504	29	38	
8	1	1	0	0	511	513	506	504	29	38	
9	1	1	0	0	511	516	508	504	29	38	
10	1	1	0	0	509	514	509	504	29	38	
11	1	1	0	0	509	509	510	504	29	38	
12	1	1	0	0	512	508	509	504	29	38	
13	1	1	0	0	508	515	508	504	29	38	
14	1	1	0	0	511	512	509	504	29	38	
15	1	1	0	0	510	514	507	504	29	38	
0	1	1	0	0	512	513	509	504	29	38	
1	1	1	0	0	511	516	511	504	29	38	
2	1	1	0	0	513	513	510	504	29	38	
3	1	1	0	0	516	515	509	504	29	38	
4	1	1	0	0	511	519	510	505	29	38	
5	1	1	0	0	510	520	510	504	30	38	
6	1	1	0	0	510	517	509	504	29	38	
7	1	1	0	0	512	516	508	504	29	38	
8	1	1	0	0	511	517	507	504	29	38	
9	1	1	0	0	511	518	508	504	29	38	
10	1	1	0	0	513	515	510	504	29	38	
11	1	1	0	0	517	507	508	504	29	38	
12	1	1	0	0	509	512	508	505	29	38	
13	1	1	0	0	510	514	509	505	30	38	
14	1	1	0	0	511	516	509	505	30	38	
15	1	1	0	0	508	517	510	506	30	38	
0	1	1	0	0	511	504	512	506	30	38	
1	1	1	0	0	511	500	510	506	30	38	
2	1	1	0	0	508	511	509	505	30	38	
3	1	1	0	0	506	517	505	506	30	38	
4	1	1	0	0	511	514	507	506	30	39	
5	1	1	0	0	511	516	509	505	30	38	
6	1	1	0	0	510	524	509	506	29	38	
7	1	1	0	0	507	524	508	505	30	38	
8	1	1	0	0	510	515	510	507	30	38	
9	1	1	0	0	515	510	511	506	30	38	
10	1	1	0	0	513	512	511	506	30	38	
11	1	1	0	0	509	515	512	507	30	38	
12	1	1	0	0	508	515	512	507	30	38	
13	1	1	0	0	507	519	510	507	30	38	
14	1	1	0	0	510	513	508	507	30	38	
15	1	1	0	0	513	508	509	506	30	38	
0	1	1	0	0	514	508	509	507	30	38	
1	1	1	0	0	509	517	509	507	29	38	
2	1	1	0	0	509	517	511	507	29	38	
3	1	1	0	0	511	512	510	507	29	38	
4	1	1	0	0	512	501	511	507	30	38	
5	1	1	0	0	512	507	509	507	30	38	
6	1	1	0	0	510	515	509	508	30	38	
7	1	1	0	0	509	516	508	508	29	38	
8	1	1	0	0	507	517	509	507	30	38	
9	1	1	0	0	511	509	509	507	30	38	
10	1	1	0	0	513	508	509	507	29	38	
11	1	1	0	0	512	510	508	507	29	38	
12	1	1	0	0	513	512	507	507	29	38	
13	1	1	0	0	511	512	508	507	29	38	
14	1	1	0	0	510	512	507	507	29	38	
15	1	1	0	0	505	515	508	507	29	38	
0	1	1	0	0	507	523	509	508	29	38	
1	1	1	0	0	504	531	510	508	29	38	
2	1	1	0	0	505	531	510	507	29	38	
3	1	1	0	0	508	526	510	507	29	38	
4	1	1	0	0	515	511	512	507	29	38	
5	1	1	0	0	518	506	512	507	29	38	
6	1	1	0	0	512	510	512	508	29	38	
7	1	1	0	0	511	512	509	507	29	38	
8	1	1	0	0	512	492	511	507	29	38	
9	1	1	0	0	514	486	509	507	29	38	
10	1	1	0	0	510	505	507	508	29	38	
11	1	1	0	0	508	511	505	508	29	38	
12	1	1	0	0	509	511	509	507	29	38	
13	1	1	0	0	510	514	508	508	29	38	
14	1	1	0	0	509	520	507	508	29	38	
15	1	1	0	0	509	519	508	507	29	38	
0	1	1	0	0	509	521	508	508	29	38	
1	1	1	0	0	509	514	509	507	29	38	
2	1	1	0	0	509	508	505	507	29	38	
3	1	1	0	0	515	503	509	507	29	38	
4	1	1	0	0	512	507	510	507	29	38	
5	1	1	0	0	510	513	508	508	29	38	
6	1	1	0	0	508	515	508	508	29	38	
7	1	1	0	0	506	520	509	508	29	38	
8	1	1	0	0	509	518	510	508	29	38	
9	1	1	0	0	510	512	511	507	29	38	
10	1	1	0	0	510	512	511	507	29	38	
11	1	1	0	0	510	518	506	507	29	38	
12	1	1	0	0	509	519	508	507	29	38	
13	1	1	0	0	511	516	510	507	29	38	
14	1	1	0	0	511	514	509	507	29	38	
15	1	1	0	0	511	513	509	507	29	38	
0	1	1	0	0	510	519	509	507	29	38	
1	1	1	0	0	511	519	509	507	29	38	
2	1	1	0	0	512	518	510	508	29	38	
3	1	1	0	0	510	521	509	508	29	38	
4	1	1	0	0	512	516	511	507	29	38	
5	1	1	0	0	510	520	508	508	29	38	
6	1	1	0	0	510	514	510	507	29	38	
7	1	1	0	0	509	513	510	508	29	38	
8	1	1	0	0	511	510	511	507	29	38	
9	1	1	0	0	508	507	508	507	29	38	
10	1	1	0	0	509	510	508	507	29	38	
11	1	1	0	0	507	507	508	507	29	38	
12	1	1	0	0	507	509	508	508	29	38	
13	1	1	0	0	509	509	509	508	29	38	
14	1	1	0	0	510	509	509	508	29	38	
15	1	1	0	0	510	511	508	509	29	38	
0	1	1	0	0	509	512	508	508	29	38	
1	1	1	0	0	507	515	510	508	29	38	
2	1	1	0	0	511	515	508	507	29	38	
3	1	1	0	0	511	519	508	507	29	38	
4	1	1	0	0	511	517	509	507	29	38	
5	1	1	0	0	511	515	508	508	29	38	
6	1	1	0	0	510	518	510	508	29	38	
7	1	1	0	0	512	515	509	508	29	38	
8	1	1	0	0	511	518	510	508	29	38	
9	1	1	0	0	511	513	511	508	29	38	
10	1	1	0	0	511	507	511	508	29	38	
11	1	1	0	0	511	512	510	509	29	38	
12	1	1	0	0	508	513	511	507	29	38	
13	1	1	0	0	509	513	511	508	29	38	
14	1	1	0	0	510	514	508	507	29	38	
15	1	1	0	0	510	508	510	506	29	38	
0	1	1	0	0	511	503	508	507	29	38	
1	1	1	0	0	511	509	510	507	29	38	
2	1	1	0	0	509	515	507	506	29	38	
3	1	1	0	0	509	516	508	507	29	38	
4	1	1	0	0	508	521	509	506	29	38	
5	1	1	0	0	508	518	508	507	29	38	
6	1	1	0	0	511	519	511	506	29	38	
7	1	1	0	0	513	517	510	507	29	38	
8	1	1	0	0	513	516	510	507	29	38	
9	1	1	0	0	511	515	511	506	29	38	
10	1	1	0	0	510	509	510	506	29	38	
11	1	1	0	0	515	504	509	505	29	38	
12	1	1	0	0	511	504	510	505	29	38	
13	1	1	0	0	509	513	510	505	29	38	
14	1	1	0	0	506	523	509	506	29	38	
15	1	1	0	0	508	527	508	506	29	38	
0	1	1	0	0	510	525	509	506	29	38	
1	1	1	0	0	513	522	510	506	29	38	
2	1	1	0	0	510	516	509	505	29	38	
3	1	1	0	0	511	502	510	506	29	38	
4	1	1	0	0	518	487	510	505	29	38	
5	1	1	0	0	511	507	509	505	29	38	
6	1	1	0	0	507	515	508	505	29	38	
7	1	1	0	0	509	504	510	505	29	38	
8	1	1	0	0	510	510	510	505	29	38	
9	1	1	0	0	511	515	508	505	29	38	
10	1	1	0	0	506	518	509	505	29	38	
11	1	1	0	0	508	518	509	505	29	38	
12	1	1	0	0	512	511	508	506	29	38	
13	1	1	0	0	513	510	508	505	29	38	
14	1	1	0	0	511	517	508	505	29	38	
15	1	1	0	0	508	525	509	505	29	38	
0	1	1	0	0	509	514	507	505	29	38	
1	1	1	0	0	511	512	511	505	29	38	
2	1	1	0	0	512	513	512	505	29	38	
3	1	1	0	0	514	518	510	505	29	38	
4	1	1	0	0	512	514	510	506	29	38	
5	1	1	0	0	512	513	509	506	29	38	
6	1	1	0	0	513	515	511	507	29	38	
7	1	1	0	0	510	517	511	506	30	38	
8	1	1	0	0	511	519	510	507	30	38	
9	1	1	0	0	511	517	511	507	30	38	
10	1	1	0	0	512	510	510	507	30	38	
11	1	1	0	0	509	515	510	507	30	38	
12	1	1	0	0	511	513	508	507	30	38	
13	1	1	0	0	511	513	507	507	30	38	
