# OpenSignals Text File Format
# {"20:15:12:22:97:41": {"sensor": ["RAW", "RAW", "RAW", "RAW", "RAW", "RAW"], "device name": "20:15:12:22:97:41", "column": ["nSeq", "I1", "I2", "O1", "O2", "EMG1", "EMG2", "EMG3", "ACC1", "ACC2", "ACC3"], "sync interval": 2, "time": "21:9:13.327", "comments": "", "device connection": "BTH20:15:12:22:97:41", "channels": [1, 2, 3, 4, 5, 6], "date": "2017-4-26", "mode": 0, "digital IO": [0, 0, 1, 1], "firmware version": 1281, "device": "bitalino_rev", "position": 0, "sampling rate": 1000, "label": ["EMG1", "EMG2", "EMG3", "ACC1", "ACC2", "ACC3"], "resolution": [4, 1, 1, 1, 1, 10, 10, 10, 10, 6, 6], "special": [{}, {}, {}, {}, {}, {}]}}
# EndOfHeader
0	1	1	0	0	508	475	507	563	30	37	
1	1	1	0	0	511	501	509	563	30	37	
2	1	1	0	0	506	519	510	563	30	37	
3	1	1	0	0	508	529	512	563	30	37	
4	1	1	0	0	508	526	510	564	30	37	
5	1	1	0	0	510	520	511	564	30	37	
6	1	1	0	0	512	519	509	564	30	37	
7	1	1	0	0	511	512	511	563	30	37	
8	1	1	0	0	508	511	509	563	30	37	
9	1	1	0	0	511	504	511	564	30	37	
10	1	1	0	0	509	511	510	564	30	37	
11	1	1	0	0	511	483	508	563	30	37	
12	1	1	0	0	510	476	509	564	30	37	
13	1	1	0	0	511	506	510	564	30	37	
14	1	1	0	0	508	524	509	564	30	37	
15	1	1	0	0	510	528	510	565	30	37	
0	1	1	0	0	509	526	509	565	30	37	
1	1	1	0	0	511	519	509	565	30	37	
2	1	1	0	0	512	515	511	565	30	37	
3	1	1	0	0	508	518	512	564	30	37	
4	1	1	0	0	509	516	507	565	30	37	
5	1	1	0	0	510	520	508	564	30	37	
6	1	1	0	0	511	520	508	565	30	37	
7	1	1	0	0	509	510	508	565	30	37	
8	1	1	0	0	508	494	507	565	30	37	
9	1	1	0	0	508	509	508	566	30	37	
10	1	1	0	0	508	514	508	566	30	37	
11	1	1	0	0	509	519	510	566	30	37	
12	1	1	0	0	511	524	508	566	30	37	
13	1	1	0	0	511	521	507	566	30	37	
14	1	1	0	0	510	517	508	566	30	37	
15	1	1	0	0	509	517	508	566	30	37	
0	1	1	0	0	510	512	509	566	30	37	
1	1	1	0	0	510	513	509	566	30	37	
2	1	1	0	0	512	512	509	566	30	37	
3	1	1	0	0	509	512	508	566	30	37	
4	1	1	0	0	510	511	511	566	30	37	
5	1	1	0	0	511	512	512	567	30	37	
6	1	1	0	0	509	512	510	567	30	37	
7	1	1	0	0	509	513	509	567	30	37	
8	1	1	0	0	511	513	509	566	30	37	
9	1	1	0	0	510	512	507	567	30	37	
10	1	1	0	0	509	514	508	566	30	37	
11	1	1	0	0	509	516	507	566	30	37	
12	1	1	0	0	510	518	508	567	30	37	
13	1	1	0	0	511	519	509	566	30	37	
14	1	1	0	0	508	515	507	566	30	37	
15	1	1	0	0	511	514	506	566	30	37	
0	1	1	0	0	508	518	509	566	30	37	
1	1	1	0	0	509	516	509	567	30	37	
2	1	1	0	0	510	509	508	567	30	37	
3	1	1	0	0	512	491	509	566	30	37	
4	1	1	0	0	512	494	510	566	30	37	
5	1	1	0	0	510	508	509	566	30	37	
6	1	1	0	0	507	516	507	566	30	37	
7	1	1	0	0	509	521	509	567	30	37	
8	1	1	0	0	508	519	512	567	30	37	
9	1	1	0	0	510	519	509	566	30	37	
10	1	1	0	0	511	515	509	567	30	37	
11	1	1	0	0	509	518	508	568	30	37	
12	1	1	0	0	511	513	509	567	30	37	
13	1	1	0	0	510	515	508	567	30	37	
14	1	1	0	0	511	513	509	566	30	37	
15	1	1	0	0	511	510	505	567	30	37	
0	1	1	0	0	510	509	507	567	30	37	
1	1	1	0	0	509	504	510	566	30	37	
2	1	1	0	0	510	504	510	567	30	37	
3	1	1	0	0	510	507	510	567	30	37	
4	1	1	0	0	509	512	511	567	30	37	
5	1	1	0	0	511	515	508	568	30	37	
6	1	1	0	0	511	516	509	568	30	37	
7	1	1	0	0	508	519	508	568	30	37	
8	1	1	0	0	510	525	509	568	30	37	
9	1	1	0	0	509	529	511	568	30	37	
10	1	1	0	0	511	519	509	568	30	37	
11	1	1	0	0	510	519	508	567	30	37	
12	1	1	0	0	511	518	509	567	30	37	
13	1	1	0	0	512	513	509	568	30	37	
14	1	1	0	0	511	506	510	567	30	37	
15	1	1	0	0	511	492	510	568	30	37	
0	1	1	0	0	510	502	511	567	30	37	
1	1	1	0	0	508	513	508	567	30	37	
2	1	1	0	0	510	514	510	568	30	37	
3	1	1	0	0	510	514	511	568	30	37	
4	1	1	0	0	510	517	508	568	30	37	
5	1	1	0	0	511	513	508	567	30	37	
6	1	1	0	0	511	503	510	566	30	37	
7	1	1	0	0	508	504	509	567	30	37	
8	1	1	0	0	508	507	509	567	30	37	
9	1	1	0	0	509	513	508	568	30	37	
10	1	1	0	0	508	515	510	567	30	37	
11	1	1	0	0	508	521	510	567	30	37	
12	1	1	0	0	509	521	510	567	30	37	
13	1	1	0	0	511	518	508	567	30	37	
14	1	1	0	0	511	515	507	567	30	37	
15	1	1	0	0	510	515	510	567	30	37	
0	1	1	0	0	512	513	508	566	30	37	
1	1	1	0	0	510	512	509	566	30	37	
2	1	1	0	0	510	510	508	565	30	37	
3	1	1	0	0	511	508	508	566	30	37	
4	1	1	0	0	510	514	507	566	30	37	
5	1	1	0	0	510	515	508	565	30	37	
6	1	1	0	0	510	517	508	565	30	37	
7	1	1	0	0	510	523	509	565	30	37	
8	1	1	0	0	510	520	509	566	30	37	
9	1	1	0	0	510	517	509	567	30	37	
10	1	1	0	0	512	519	508	566	30	37	
11	1	1	0	0	512	515	509	566	30	37	
12	1	1	0	0	510	508	509	566	30	37	
13	1	1	0	0	510	508	511	565	30	37	
14	1	1	0	0	509	511	508	564	30	37	
15	1	1	0	0	509	481	509	564	30	37	
0	1	1	0	0	510	481	507	564	30	37	
1	1	1	0	0	510	499	509	565	30	37	
2	1	1	0	0	510	515	508	566	30	37	
3	1	1	0	0	510	524	510	566	30	37	
4	1	1	0	0	507	527	511	566	30	37	
5	1	1	0	0	508	521	510	566	30	37	
6	1	1	0	0	511	519	508	565	30	37	
7	1	1	0	0	511	519	510	565	30	37	
8	1	1	0	0	511	519	508	564	30	37	
9	1	1	0	0	511	520	508	565	30	37	
10	1	1	0	0	511	527	510	564	30	37	
11	1	1	0	0	510	520	512	565	30	37	
12	1	1	0	0	508	518	510	565	30	37	
13	1	1	0	0	510	515	509	564	30	37	
14	1	1	0	0	510	521	508	564	30	37	
15	1	1	0	0	510	514	509	565	30	37	
0	1	1	0	0	511	472	509	565	30	37	
1	1	1	0	0	512	477	508	565	30	37	
2	1	1	0	0	511	513	511	565	30	37	
3	1	1	0	0	510	530	511	564	30	37	
4	1	1	0	0	511	534	509	565	30	37	
5	1	1	0	0	510	519	507	564	30	37	
6	1	1	0	0	510	517	508	564	30	37	
7	1	1	0	0	509	518	508	565	30	37	
8	1	1	0	0	509	519	508	564	30	37	
9	1	1	0	0	510	517	506	565	30	37	
10	1	1	0	0	509	513	507	565	30	37	
11	1	1	0	0	508	504	510	564	30	37	
12	1	1	0	0	509	487	510	563	30	37	
13	1	1	0	0	508	484	509	564	30	37	
14	1	1	0	0	508	505	512	563	30	37	
15	1	1	0	0	508	514	508	563	30	37	
0	1	1	0	0	510	517	512	564	30	37	
1	1	1	0	0	512	518	510	564	30	37	
2	1	1	0	0	509	518	507	564	30	37	
3	1	1	0	0	511	515	508	564	30	37	
4	1	1	0	0	509	517	510	564	30	37	
5	1	1	0	0	511	521	509	564	30	37	
6	1	1	0	0	508	518	508	564	30	37	
7	1	1	0	0	510	516	508	563	30	37	
8	1	1	0	0	508	523	508	563	30	37	
9	1	1	0	0	510	524	507	563	30	37	
10	1	1	0	0	510	517	510	563	30	37	
11	1	1	0	0	512	516	509	563	30	37	
12	1	1	0	0	511	515	510	563	30	37	
13	1	1	0	0	510	515	510	563	30	37	
14	1	1	0	0	508	517	511	564	30	37	
15	1	1	0	0	510	519	510	564	30	37	
0	1	1	0	0	510	519	508	564	30	37	
1	1	1	0	0	509	519	509	563	30	37	
2	1	1	0	0	509	516	509	563	30	37	
3	1	1	0	0	511	512	510	563	30	37	
4	1	1	0	0	511	494	508	563	30	37	
5	1	1	0	0	510	485	509	563	30	37	
6	1	1	0	0	509	496	508	563	30	37	
7	1	1	0	0	510	508	509	563	30	37	
8	1	1	0	0	510	515	511	563	30	37	
9	1	1	0	0	509	519	508	563	30	37	
10	1	1	0	0	511	516	509	563	30	37	
11	1	1	0	0	510	515	508	563	30	37	
12	1	1	0	0	511	517	507	563	30	37	
13	1	1	0	0	510	518	510	562	30	37	
14	1	1	0	0	509	514	510	562	30	37	
15	1	1	0	0	511	513	510	562	30	37	
0	1	1	0	0	511	512	508	561	30	37	
1	1	1	0	0	510	519	509	562	30	37	
2	1	1	0	0	509	515	508	562	30	37	
3	1	1	0	0	509	507	507	561	30	37	
4	1	1	0	0	509	511	510	562	30	37	
5	1	1	0	0	510	514	508	563	30	37	
6	1	1	0	0	511	513	510	562	30	37	
7	1	1	0	0	510	516	510	562	30	37	
8	1	1	0	0	511	509	507	562	30	37	
9	1	1	0	0	509	513	510	561	30	37	
10	1	1	0	0	509	515	507	561	30	37	
11	1	1	0	0	510	516	507	561	30	37	
12	1	1	0	0	508	521	510	562	30	37	
13	1	1	0	0	510	525	508	562	30	37	
14	1	1	0	0	509	518	509	561	30	37	
15	1	1	0	0	509	511	509	561	30	37	
0	1	1	0	0	511	508	508	562	30	37	
1	1	1	0	0	510	511	511	562	30	37	
2	1	1	0	0	510	512	510	562	30	37	
3	1	1	0	0	508	513	510	562	30	37	
4	1	1	0	0	511	509	510	561	30	37	
5	1	1	0	0	510	494	509	561	30	37	
6	1	1	0	0	510	476	511	561	30	37	
7	1	1	0	0	510	495	508	561	30	37	
8	1	1	0	0	510	514	507	561	30	37	
9	1	1	0	0	508	522	508	561	30	37	
10	1	1	0	0	508	523	508	561	30	37	
11	1	1	0	0	508	523	510	562	30	37	
12	1	1	0	0	510	519	510	562	30	37	
13	1	1	0	0	510	509	509	562	30	37	
14	1	1	0	0	513	514	509	561	30	37	
15	1	1	0	0	511	517	510	562	30	37	
0	1	1	0	0	510	515	509	561	30	37	
1	1	1	0	0	508	515	510	561	30	37	
2	1	1	0	0	510	515	509	561	30	37	
3	1	1	0	0	510	513	510	561	30	37	
4	1	1	0	0	509	512	510	561	30	37	
5	1	1	0	0	510	511	510	561	30	37	
6	1	1	0	0	510	511	509	561	30	37	
7	1	1	0	0	511	516	508	561	30	37	
8	1	1	0	0	512	523	510	561	30	37	
9	1	1	0	0	508	525	506	562	30	37	
10	1	1	0	0	508	519	507	561	30	37	
11	1	1	0	0	509	520	507	561	30	37	
12	1	1	0	0	509	518	508	561	30	37	
13	1	1	0	0	512	518	508	560	30	37	
14	1	1	0	0	511	517	508	560	30	37	
15	1	1	0	0	510	514	512	560	30	37	
0	1	1	0	0	511	511	510	560	30	37	
1	1	1	0	0	509	512	511	560	30	37	
2	1	1	0	0	511	514	508	560	30	37	
3	1	1	0	0	510	513	509	561	30	37	
4	1	1	0	0	508	505	510	560	30	37	
5	1	1	0	0	511	492	509	560	30	37	
6	1	1	0	0	511	499	510	560	30	37	
7	1	1	0	0	510	506	509	560	30	37	
8	1	1	0	0	509	510	510	560	30	37	
9	1	1	0	0	508	513	509	560	30	37	
10	1	1	0	0	511	519	506	560	30	37	
11	1	1	0	0	510	532	508	560	30	37	
12	1	1	0	0	508	535	508	560	30	37	
13	1	1	0	0	511	530	509	560	30	37	
14	1	1	0	0	509	517	507	560	30	37	
15	1	1	0	0	509	499	508	560	30	37	
0	1	1	0	0	510	471	510	560	30	37	
1	1	1	0	0	511	494	509	560	30	37	
2	1	1	0	0	510	512	509	560	30	37	
3	1	1	0	0	510	519	509	560	30	37	
4	1	1	0	0	508	519	508	560	30	37	
5	1	1	0	0	508	521	508	560	30	37	
6	1	1	0	0	508	520	510	560	30	37	
7	1	1	0	0	509	515	511	560	30	37	
8	1	1	0	0	507	514	511	560	30	37	
9	1	1	0	0	509	505	510	560	30	37	
10	1	1	0	0	512	507	511	560	30	37	
11	1	1	0	0	510	516	507	560	30	37	
12	1	1	0	0	511	522	508	560	30	37	
13	1	1	0	0	511	526	509	560	30	37	
14	1	1	0	0	510	527	510	560	30	37	
15	1	1	0	0	510	528	509	559	30	37	
0	1	1	0	0	508	520	510	559	30	37	
1	1	1	0	0	510	499	511	559	30	37	
2	1	1	0	0	510	464	508	560	30	37	
3	1	1	0	0	510	482	509	560	30	37	
4	1	1	0	0	511	502	510	560	30	37	
5	1	1	0	0	510	511	509	560	30	37	
6	1	1	0	0	508	514	505	560	30	37	
7	1	1	0	0	507	517	507	560	30	37	
8	1	1	0	0	507	521	509	560	30	37	
9	1	1	0	0	508	524	509	559	30	37	
10	1	1	0	0	511	524	510	559	30	37	
11	1	1	0	0	511	525	508	559	30	37	
12	1	1	0	0	509	519	509	559	30	37	
13	1	1	0	0	511	518	508	560	30	37	
14	1	1	0	0	511	510	507	559	30	37	
15	1	1	0	0	510	505	510	559	30	37	
0	1	1	0	0	510	508	510	560	30	37	
1	1	1	0	0	510	507	508	560	30	37	
2	1	1	0	0	511	522	509	560	30	37	
3	1	1	0	0	509	526	508	560	30	37	
4	1	1	0	0	510	527	511	559	30	37	
5	1	1	0	0	511	524	508	559	30	37	
6	1	1	0	0	509	527	509	559	30	37	
7	1	1	0	0	509	524	508	559	30	37	
8	1	1	0	0	511	519	508	560	30	37	
9	1	1	0	0	511	514	508	560	30	37	
10	1	1	0	0	509	502	510	560	30	37	
11	1	1	0	0	509	482	509	560	30	37	
12	1	1	0	0	510	487	510	560	30	37	
13	1	1	0	0	509	494	509	559	30	37	
14	1	1	0	0	507	483	509	559	30	37	
15	1	1	0	0	512	502	510	559	30	37	
0	1	1	0	0	511	516	509	559	30	37	
1	1	1	0	0	511	524	510	560	30	37	
2	1	1	0	0	510	525	509	560	30	37	
3	1	1	0	0	511	526	511	560	30	37	
4	1	1	0	0	511	525	511	560	30	37	
5	1	1	0	0	508	522	508	560	30	37	
6	1	1	0	0	511	512	509	561	30	37	
7	1	1	0	0	511	515	509	561	30	37	
8	1	1	0	0	510	520	508	560	30	37	
9	1	1	0	0	509	514	509	561	30	37	
10	1	1	0	0	510	505	509	560	30	37	
11	1	1	0	0	512	508	509	560	30	37	
12	1	1	0	0	511	514	509	561	30	37	
13	1	1	0	0	512	512	510	560	30	37	
14	1	1	0	0	511	512	510	560	30	37	
15	1	1	0	0	509	512	509	561	30	37	
0	1	1	0	0	511	513	509	561	30	37	
1	1	1	0	0	508	513	509	561	30	37	
2	1	1	0	0	510	520	510	562	30	37	
3	1	1	0	0	510	518	509	561	30	37	
4	1	1	0	0	511	512	510	561	30	37	
5	1	1	0	0	512	517	511	561	30	37	
6	1	1	0	0	511	520	509	560	30	37	
7	1	1	0	0	510	515	509	560	30	37	
8	1	1	0	0	511	515	509	560	30	37	
9	1	1	0	0	508	515	508	561	30	37	
10	1	1	0	0	510	511	508	561	30	37	
11	1	1	0	0	511	516	509	561	30	37	
12	1	1	0	0	510	524	509	561	30	37	
13	1	1	0	0	511	524	507	561	30	37	
14	1	1	0	0	508	519	509	561	30	37	
15	1	1	0	0	509	521	508	561	30	37	
0	1	1	0	0	508	523	510	561	30	37	
1	1	1	0	0	509	527	508	561	30	37	
2	1	1	0	0	509	530	508	561	30	37	
3	1	1	0	0	509	524	509	561	30	37	
4	1	1	0	0	511	498	509	561	30	37	
5	1	1	0	0	510	460	511	561	30	37	
6	1	1	0	0	511	442	509	561	30	37	
7	1	1	0	0	511	486	508	561	30	37	
8	1	1	0	0	507	512	507	561	30	37	
9	1	1	0	0	507	519	507	562	30	37	
10	1	1	0	0	508	521	509	562	30	37	
11	1	1	0	0	508	517	511	562	30	37	
12	1	1	0	0	509	514	511	561	30	37	
13	1	1	0	0	509	521	510	561	30	37	
14	1	1	0	0	511	525	510	561	30	37	
15	1	1	0	0	512	524	509	561	30	37	
0	1	1	0	0	510	526	509	561	30	37	
1	1	1	0	0	509	527	510	561	30	37	
2	1	1	0	0	510	527	511	562	30	37	
3	1	1	0	0	511	523	510	562	30	37	
4	1	1	0	0	510	514	510	563	30	37	
5	1	1	0	0	510	509	509	563	30	37	
6	1	1	0	0	510	487	506	563	30	37	
7	1	1	0	0	511	484	511	563	30	37	
8	1	1	0	0	510	499	509	563	30	37	
9	1	1	0	0	509	505	508	562	30	37	
10	1	1	0	0	508	512	504	562	30	37	
11	1	1	0	0	508	515	508	562	30	37	
12	1	1	0	0	508	526	508	562	30	37	
13	1	1	0	0	509	526	508	562	30	37	
14	1	1	0	0	511	519	510	562	30	37	
15	1	1	0	0	509	513	508	562	30	37	
0	1	1	0	0	509	516	510	562	30	37	
1	1	1	0	0	511	519	511	563	30	37	
2	1	1	0	0	510	524	508	563	30	37	
3	1	1	0	0	512	524	509	563	30	37	
4	1	1	0	0	510	518	511	562	30	37	
5	1	1	0	0	508	519	508	561	30	37	
6	1	1	0	0	509	517	511	561	30	37	
7	1	1	0	0	513	518	511	561	30	37	
8	1	1	0	0	509	519	512	561	30	37	
9	1	1	0	0	511	518	508	561	30	37	
10	1	1	0	0	511	505	508	562	30	37	
11	1	1	0	0	511	499	507	562	30	37	
12	1	1	0	0	509	497	508	563	30	37	
13	1	1	0	0	511	507	510	563	30	37	
14	1	1	0	0	509	498	508	562	30	37	
15	1	1	0	0	509	487	507	563	30	37	
0	1	1	0	0	510	504	505	562	30	37	
1	1	1	0	0	509	515	508	561	30	37	
2	1	1	0	0	510	519	506	561	30	37	
3	1	1	0	0	508	521	510	562	30	37	
4	1	1	0	0	509	506	510	562	30	37	
5	1	1	0	0	510	513	510	562	30	37	
6	1	1	0	0	510	521	508	561	30	37	
7	1	1	0	0	512	525	510	561	30	37	
8	1	1	0	0	511	528	509	562	30	37	
9	1	1	0	0	510	523	510	563	30	37	
10	1	1	0	0	511	513	508	562	30	37	
11	1	1	0	0	511	513	508	561	30	37	
12	1	1	0	0	510	519	510	561	30	37	
13	1	1	0	0	510	516	510	561	30	37	
14	1	1	0	0	509	518	510	561	30	37	
15	1	1	0	0	509	514	511	562	30	37	
0	1	1	0	0	510	502	510	562	30	37	
1	1	1	0	0	511	494	507	562	30	37	
2	1	1	0	0	509	497	510	562	30	37	
3	1	1	0	0	510	507	509	562	30	37	
4	1	1	0	0	510	509	508	562	30	37	
5	1	1	0	0	510	513	508	562	30	37	
6	1	1	0	0	508	516	510	561	30	37	
7	1	1	0	0	510	515	508	562	30	37	
8	1	1	0	0	510	518	508	561	30	37	
9	1	1	0	0	510	523	510	561	30	37	
10	1	1	0	0	511	523	509	562	30	37	
11	1	1	0	0	508	525	508	562	30	37	
12	1	1	0	0	512	519	508	562	30	37	
13	1	1	0	0	511	516	510	562	30	37	
14	1	1	0	0	510	511	509	562	30	37	
15	1	1	0	0	510	501	509	562	30	37	
0	1	1	0	0	510	506	510	561	30	37	
1	1	1	0	0	508	511	509	562	30	37	
2	1	1	0	0	509	513	508	561	30	37	
3	1	1	0	0	508	516	508	561	30	37	
4	1	1	0	0	508	515	508	562	30	37	
5	1	1	0	0	512	512	510	561	30	37	
6	1	1	0	0	512	516	509	561	30	37	
7	1	1	0	0	511	520	510	563	30	37	
8	1	1	0	0	510	518	508	562	30	37	
9	1	1	0	0	510	512	511	563	30	37	
10	1	1	0	0	510	511	511	562	30	37	
11	1	1	0	0	510	513	510	562	30	37	
12	1	1	0	0	510	511	508	562	30	37	
13	1	1	0	0	510	507	510	562	30	37	
14	1	1	0	0	510	506	509	561	30	37	
15	1	1	0	0	509	509	509	562	30	37	
0	1	1	0	0	507	512	509	561	30	37	
1	1	1	0	0	508	510	510	562	30	37	
2	1	1	0	0	510	508	510	562	30	37	
3	1	1	0	0	511	508	508	563	30	37	
4	1	1	0	0	511	512	510	563	30	37	
5	1	1	0	0	510	514	508	562	30	37	
6	1	1	0	0	511	518	509	562	30	37	
7	1	1	0	0	511	518	508	562	30	37	
8	1	1	0	0	511	518	509	562	30	37	
9	1	1	0	0	511	519	510	562	30	37	
10	1	1	0	0	510	518	508	562	30	37	
11	1	1	0	0	510	515	510	562	30	37	
12	1	1	0	0	508	514	508	562	30	37	
13	1	1	0	0	510	507	509	561	30	37	
14	1	1	0	0	510	502	508	562	30	37	
15	1	1	0	0	508	508	510	562	30	37	
0	1	1	0	0	508	516	511	561	30	37	
1	1	1	0	0	509	519	508	562	30	37	
2	1	1	0	0	510	504	509	562	30	37	
3	1	1	0	0	508	504	509	562	30	37	
4	1	1	0	0	510	513	508	562	30	37	
5	1	1	0	0	508	519	508	562	30	37	
6	1	1	0	0	510	529	506	562	30	37	
7	1	1	0	0	511	533	508	562	30	37	
8	1	1	0	0	509	528	510	561	30	37	
9	1	1	0	0	510	520	508	562	30	37	
10	1	1	0	0	511	494	508	561	30	37	
11	1	1	0	0	512	470	510	561	30	37	
12	1	1	0	0	512	497	508	562	30	37	
13	1	1	0	0	509	513	507	561	30	37	
14	1	1	0	0	512	516	510	561	30	37	
15	1	1	0	0	509	515	508	561	30	37	
0	1	1	0	0	510	513	510	561	30	37	
1	1	1	0	0	508	517	510	561	30	37	
2	1	1	0	0	509	519	509	560	30	37	
3	1	1	0	0	508	519	508	560	30	37	
4	1	1	0	0	508	518	509	561	30	37	
5	1	1	0	0	508	521	508	561	30	37	
6	1	1	0	0	512	516	508	561	30	37	
7	1	1	0	0	510	515	509	560	30	37	
8	1	1	0	0	510	519	508	560	30	37	
9	1	1	0	0	510	521	508	560	30	37	
10	1	1	0	0	511	519	509	561	30	37	
11	1	1	0	0	511	515	510	561	30	37	
12	1	1	0	0	509	513	511	561	30	37	
13	1	1	0	0	511	509	508	561	30	37	
14	1	1	0	0	511	509	511	561	30	37	
15	1	1	0	0	510	514	509	560	30	37	
0	1	1	0	0	509	519	508	560	30	37	
1	1	1	0	0	511	514	509	560	30	37	
2	1	1	0	0	509	504	508	561	30	37	
3	1	1	0	0	509	508	508	560	30	37	
4	1	1	0	0	508	504	507	561	30	37	
5	1	1	0	0	509	509	511	562	30	37	
6	1	1	0	0	510	510	508	560	30	37	
7	1	1	0	0	510	487	509	560	30	37	
8	1	1	0	0	510	494	512	561	30	37	
9	1	1	0	0	507	508	511	561	30	37	
10	1	1	0	0	509	503	508	560	30	37	
11	1	1	0	0	507	510	507	560	30	37	
12	1	1	0	0	507	522	507	560	30	37	
13	1	1	0	0	512	524	509	560	30	37	
14	1	1	0	0	509	519	509	560	30	37	
15	1	1	0	0	511	518	511	561	30	37	
0	1	1	0	0	511	525	510	561	30	37	
1	1	1	0	0	510	529	509	561	30	37	
2	1	1	0	0	509	526	509	561	30	37	
3	1	1	0	0	511	524	508	561	30	37	
4	1	1	0	0	511	524	510	561	30	37	
5	1	1	0	0	512	525	512	560	30	37	
6	1	1	0	0	511	515	510	560	30	37	
7	1	1	0	0	511	487	512	561	30	37	
8	1	1	0	0	508	492	510	561	30	37	
9	1	1	0	0	510	502	511	561	30	37	
10	1	1	0	0	508	513	509	560	30	37	
11	1	1	0	0	511	521	508	561	30	37	
12	1	1	0	0	510	522	509	560	30	37	
13	1	1	0	0	509	520	511	560	30	37	
14	1	1	0	0	511	519	511	561	30	37	
15	1	1	0	0	510	519	507	560	30	37	
0	1	1	0	0	509	522	510	560	30	37	
1	1	1	0	0	509	518	508	560	30	37	
2	1	1	0	0	508	510	507	561	30	37	
3	1	1	0	0	511	497	507	560	30	37	
4	1	1	0	0	510	484	507	560	30	37	
5	1	1	0	0	508	504	507	561	30	37	
6	1	1	0	0	511	515	507	560	30	37	
7	1	1	0	0	511	516	510	560	30	37	
8	1	1	0	0	508	517	510	560	30	37	
9	1	1	0	0	508	519	510	560	30	37	
10	1	1	0	0	510	519	509	560	30	37	
11	1	1	0	0	510	519	509	560	30	37	
12	1	1	0	0	510	513	508	560	30	37	
13	1	1	0	0	512	509	508	560	30	37	
14	1	1	0	0	510	505	511	560	30	37	
15	1	1	0	0	511	503	507	560	30	37	
0	1	1	0	0	511	513	509	560	30	37	
1	1	1	0	0	510	518	510	561	30	37	
2	1	1	0	0	510	519	508	561	30	37	
3	1	1	0	0	509	521	510	560	30	37	
4	1	1	0	0	510	521	509	560	30	37	
5	1	1	0	0	509	522	508	560	30	37	
6	1	1	0	0	510	521	510	560	30	37	
7	1	1	0	0	509	516	508	560	30	37	
8	1	1	0	0	509	512	510	560	30	37	
9	1	1	0	0	512	509	511	560	30	37	
10	1	1	0	0	511	505	510	561	30	37	
11	1	1	0	0	511	501	508	560	30	37	
12	1	1	0	0	511	503	508	561	30	37	
13	1	1	0	0	511	511	511	560	30	37	
14	1	1	0	0	511	515	510	560	30	37	
15	1	1	0	0	508	520	510	560	30	37	
0	1	1	0	0	508	519	510	560	30	37	
1	1	1	0	0	510	517	509	560	30	37	
2	1	1	0	0	508	515	507	560	30	37	
3	1	1	0	0	509	504	508	560	30	37	
4	1	1	0	0	511	496	509	560	30	37	
5	1	1	0	0	508	508	510	560	30	37	
6	1	1	0	0	510	515	509	560	30	37	
7	1	1	0	0	510	515	509	560	30	37	
8	1	1	0	0	509	521	509	560	30	37	
9	1	1	0	0	511	522	508	560	30	37	
10	1	1	0	0	511	527	508	560	30	37	
11	1	1	0	0	509	531	508	560	30	37	
12	1	1	0	0	510	527	508	559	30	37	
13	1	1	0	0	509	515	507	560	30	37	
14	1	1	0	0	511	488	509	559	30	37	
15	1	1	0	0	509	470	510	560	30	37	
0	1	1	0	0	510	497	509	560	30	37	
1	1	1	0	0	507	514	508	560	30	37	
2	1	1	0	0	508	519	509	560	30	37	
3	1	1	0	0	510	516	509	560	30	37	
4	1	1	0	0	509	514	510	559	30	37	
5	1	1	0	0	511	515	510	560	30	37	
6	1	1	0	0	510	515	510	559	30	37	
7	1	1	0	0	511	510	509	560	30	37	
8	1	1	0	0	510	499	507	560	30	37	
9	1	1	0	0	510	512	506	560	30	37	
10	1	1	0	0	507	522	508	560	30	37	
11	1	1	0	0	509	520	509	560	30	37	
12	1	1	0	0	509	518	509	560	30	37	
13	1	1	0	0	510	514	508	560	30	37	
14	1	1	0	0	510	495	511	559	30	37	
15	1	1	0	0	513	502	509	559	30	37	
0	1	1	0	0	510	515	510	559	30	37	
1	1	1	0	0	509	520	511	559	30	37	
2	1	1	0	0	508	522	510	559	30	37	
3	1	1	0	0	509	519	511	559	30	37	
4	1	1	0	0	508	521	511	560	30	37	
5	1	1	0	0	510	523	511	560	30	37	
6	1	1	0	0	510	516	509	560	30	37	
7	1	1	0	0	512	504	507	559	30	37	
8	1	1	0	0	511	504	509	559	30	37	
9	1	1	0	0	511	518	508	559	30	37	
10	1	1	0	0	511	524	509	559	30	37	
11	1	1	0	0	510	526	510	559	30	37	
12	1	1	0	0	511	524	510	559	30	37	
13	1	1	0	0	508	519	508	559	30	37	
14	1	1	0	0	509	515	510	560	30	37	
15	1	1	0	0	510	509	508	560	30	37	
0	1	1	0	0	510	512	510	560	30	37	
1	1	1	0	0	508	511	511	560	30	37	
2	1	1	0	0	508	512	509	560	30	37	
3	1	1	0	0	510	515	508	560	30	37	
4	1	1	0	0	511	499	510	560	30	37	
5	1	1	0	0	511	505	510	559	30	37	
6	1	1	0	0	511	505	509	559	30	37	
7	1	1	0	0	508	502	510	560	30	37	
8	1	1	0	0	511	507	508	560	30	37	
9	1	1	0	0	509	510	508	560	30	37	
10	1	1	0	0	507	514	509	560	30	37	
11	1	1	0	0	509	514	508	560	30	37	
12	1	1	0	0	508	515	510	560	30	37	
13	1	1	0	0	510	515	512	560	30	37	
14	1	1	0	0	511	518	509	560	30	37	
15	1	1	0	0	510	514	508	559	30	37	
0	1	1	0	0	511	515	508	559	30	37	
1	1	1	0	0	510	512	509	560	30	37	
2	1	1	0	0	511	514	508	560	30	37	
3	1	1	0	0	512	511	508	560	30	37	
4	1	1	0	0	510	514	507	560	30	37	
5	1	1	0	0	507	521	509	560	30	37	
6	1	1	0	0	507	527	507	561	30	37	
7	1	1	0	0	508	526	508	561	30	37	
8	1	1	0	0	508	520	510	561	30	37	
9	1	1	0	0	512	516	509	560	30	37	
10	1	1	0	0	511	513	511	560	30	37	
11	1	1	0	0	508	510	509	560	30	37	
12	1	1	0	0	511	505	511	560	30	37	
13	1	1	0	0	509	487	508	559	30	37	
14	1	1	0	0	510	483	510	559	30	37	
15	1	1	0	0	510	490	508	560	30	37	
0	1	1	0	0	508	508	509	560	30	37	
1	1	1	0	0	509	519	509	560	30	37	
2	1	1	0	0	510	522	509	560	30	37	
3	1	1	0	0	508	524	508	560	30	37	
4	1	1	0	0	509	521	508	560	30	37	
5	1	1	0	0	510	519	509	560	30	37	
6	1	1	0	0	510	516	506	559	30	37	
7	1	1	0	0	510	518	508	559	30	37	
8	1	1	0	0	511	515	509	559	30	37	
9	1	1	0	0	512	517	510	559	30	37	
10	1	1	0	0	509	516	507	560	30	37	
11	1	1	0	0	511	519	508	560	30	37	
12	1	1	0	0	511	521	511	560	30	37	
13	1	1	0	0	507	520	508	560	30	37	
14	1	1	0	0	511	511	507	560	30	37	
15	1	1	0	0	509	489	511	560	30	37	
0	1	1	0	0	509	492	510	560	30	37	
1	1	1	0	0	510	508	508	559	30	37	
2	1	1	0	0	510	515	508	559	30	37	
3	1	1	0	0	510	513	507	560	30	37	
4	1	1	0	0	507	516	509	560	30	37	
5	1	1	0	0	508	517	509	560	30	37	
6	1	1	0	0	510	515	510	559	30	37	
7	1	1	0	0	509	513	511	560	30	37	
8	1	1	0	0	508	517	509	561	30	37	
9	1	1	0	0	509	521	510	560	30	37	
10	1	1	0	0	510	523	507	560	30	37	
11	1	1	0	0	509	522	510	560	30	37	
12	1	1	0	0	512	522	508	559	30	37	
13	1	1	0	0	512	515	510	560	30	37	
14	1	1	0	0	511	510	509	559	30	37	
15	1	1	0	0	511	512	510	560	30	37	
0	1	1	0	0	510	519	509	560	30	37	
1	1	1	0	0	511	525	508	560	30	37	
2	1	1	0	0	509	528	508	560	30	37	
3	1	1	0	0	509	524	508	560	30	37	
4	1	1	0	0	509	510	508	560	30	37	
5	1	1	0	0	509	491	508	560	30	37	
6	1	1	0	0	507	463	507	560	30	37	
7	1	1	0	0	510	489	508	560	30	37	
8	1	1	0	0	510	494	508	559	30	37	
9	1	1	0	0	511	504	508	560	30	37	
10	1	1	0	0	509	523	509	560	30	37	
11	1	1	0	0	509	525	511	560	30	37	
12	1	1	0	0	510	515	510	560	30	37	
13	1	1	0	0	510	509	511	559	30	37	
14	1	1	0	0	511	517	509	560	30	37	
15	1	1	0	0	510	515	510	561	30	37	
0	1	1	0	0	510	521	511	560	30	37	
1	1	1	0	0	511	524	509	560	30	37	
2	1	1	0	0	510	525	509	560	30	37	
3	1	1	0	0	510	523	508	560	30	37	
4	1	1	0	0	511	518	509	560	30	37	
5	1	1	0	0	512	506	508	560	30	37	
6	1	1	0	0	509	509	507	560	30	37	
7	1	1	0	0	509	512	510	560	30	37	
8	1	1	0	0	508	508	508	560	30	37	
9	1	1	0	0	509	508	507	561	30	37	
10	1	1	0	0	511	512	508	560	30	37	
11	1	1	0	0	510	515	509	560	30	37	
12	1	1	0	0	512	515	510	560	30	37	
13	1	1	0	0	509	516	512	560	30	37	
14	1	1	0	0	511	515	511	560	30	37	
15	1	1	0	0	509	518	508	560	30	37	
0	1	1	0	0	510	520	509	560	30	37	
1	1	1	0	0	508	520	509	560	30	37	
2	1	1	0	0	509	515	509	561	30	37	
3	1	1	0	0	510	516	508	561	30	37	
4	1	1	0	0	507	513	508	561	30	37	
5	1	1	0	0	510	507	509	560	30	37	
6	1	1	0	0	510	508	511	560	30	37	
7	1	1	0	0	511	512	508	560	30	37	
8	1	1	0	0	510	512	509	560	30	37	
9	1	1	0	0	512	506	509	560	30	37	
10	1	1	0	0	512	503	511	560	30	37	
11	1	1	0	0	511	505	509	560	30	37	
12	1	1	0	0	508	512	510	561	30	37	
13	1	1	0	0	508	515	510	561	30	37	
14	1	1	0	0	510	519	508	560	30	37	
15	1	1	0	0	511	522	509	561	30	37	
0	1	1	0	0	508	523	508	560	30	37	
1	1	1	0	0	510	523	507	561	30	37	
2	1	1	0	0	509	524	508	560	30	37	
3	1	1	0	0	508	524	506	560	30	37	
4	1	1	0	0	509	519	508	561	30	37	
5	1	1	0	0	509	506	508	560	30	37	
6	1	1	0	0	512	492	508	561	30	37	
7	1	1	0	0	509	487	509	561	30	37	
8	1	1	0	0	509	496	511	561	30	37	
9	1	1	0	0	509	489	508	561	30	37	
10	1	1	0	0	509	504	511	561	30	37	
11	1	1	0	0	508	511	508	561	30	37	
12	1	1	0	0	509	519	508	560	30	37	
13	1	1	0	0	508	520	509	560	30	37	
14	1	1	0	0	510	522	509	560	30	37	
15	1	1	0	0	510	522	508	560	30	37	
0	1	1	0	0	508	525	508	560	30	37	
1	1	1	0	0	510	527	508	560	30	37	
2	1	1	0	0	510	526	508	561	30	37	
3	1	1	0	0	510	518	510	561	30	37	
4	1	1	0	0	511	517	509	561	30	37	
5	1	1	0	0	508	504	508	561	30	37	
6	1	1	0	0	512	501	511	561	30	37	
7	1	1	0	0	511	512	510	560	30	37	
8	1	1	0	0	510	519	508	560	30	37	
9	1	1	0	0	511	524	507	560	30	37	
10	1	1	0	0	509	514	510	560	30	37	
11	1	1	0	0	510	509	511	560	30	37	
12	1	1	0	0	510	499	510	560	30	37	
13	1	1	0	0	511	501	511	561	30	37	
14	1	1	0	0	510	504	510	561	30	37	
15	1	1	0	0	510	504	509	561	30	37	
0	1	1	0	0	511	507	511	560	30	37	
1	1	1	0	0	509	512	508	560	30	37	
2	1	1	0	0	508	523	508	560	30	37	
3	1	1	0	0	510	534	510	560	30	37	
4	1	1	0	0	509	540	509	560	30	37	
5	1	1	0	0	507	536	510	560	30	37	
6	1	1	0	0	508	528	508	561	30	37	
7	1	1	0	0	510	526	508	561	30	37	
8	1	1	0	0	510	518	508	561	30	37	
9	1	1	0	0	510	492	509	561	30	37	
10	1	1	0	0	511	462	509	561	30	37	
11	1	1	0	0	510	475	508	561	30	37	
12	1	1	0	0	510	503	508	561	30	37	
13	1	1	0	0	510	513	509	561	30	37	
14	1	1	0	0	509	518	511	561	30	37	
15	1	1	0	0	508	521	510	561	30	37	
0	1	1	0	0	511	521	510	561	30	37	
1	1	1	0	0	511	521	511	561	30	37	
2	1	1	0	0	510	523	508	561	30	37	
3	1	1	0	0	509	524	508	562	30	37	
4	1	1	0	0	508	519	508	562	30	37	
5	1	1	0	0	510	511	508	561	30	37	
6	1	1	0	0	510	506	511	561	30	37	
7	1	1	0	0	509	510	509	561	30	37	
8	1	1	0	0	508	507	508	561	30	37	
9	1	1	0	0	508	502	508	561	30	37	
10	1	1	0	0	509	511	511	561	30	37	
11	1	1	0	0	509	516	508	561	30	37	
12	1	1	0	0	510	518	509	560	30	37	
13	1	1	0	0	510	517	508	561	30	37	
14	1	1	0	0	509	515	511	561	30	37	
15	1	1	0	0	510	514	508	561	30	37	
0	1	1	0	0	512	515	510	560	30	37	
1	1	1	0	0	512	519	508	561	30	37	
2	1	1	0	0	509	519	510	561	30	37	
3	1	1	0	0	509	519	510	561	30	37	
4	1	1	0	0	511	518	509	561	30	37	
5	1	1	0	0	511	512	509	561	30	37	
6	1	1	0	0	511	510	509	561	30	37	
7	1	1	0	0	510	513	510	561	30	37	
8	1	1	0	0	510	513	509	561	30	37	
9	1	1	0	0	510	514	508	561	30	37	
10	1	1	0	0	508	504	508	562	30	37	
11	1	1	0	0	508	504	509	561	30	37	
12	1	1	0	0	508	513	509	561	30	37	
13	1	1	0	0	508	518	509	561	30	37	
14	1	1	0	0	509	518	508	560	30	37	
15	1	1	0	0	509	497	508	561	30	37	
0	1	1	0	0	510	491	511	561	30	37	
1	1	1	0	0	507	513	511	561	30	37	
2	1	1	0	0	510	517	510	561	30	37	
3	1	1	0	0	510	519	509	561	30	37	
4	1	1	0	0	508	524	510	561	30	37	
5	1	1	0	0	511	526	509	560	30	37	
6	1	1	0	0	509	525	509	561	30	37	
7	1	1	0	0	511	517	511	560	30	37	
8	1	1	0	0	510	509	509	560	30	37	
9	1	1	0	0	511	503	510	561	30	37	
10	1	1	0	0	512	498	509	560	30	37	
11	1	1	0	0	511	505	508	561	30	37	
12	1	1	0	0	509	506	505	561	30	37	
13	1	1	0	0	511	502	506	561	30	37	
14	1	1	0	0	511	509	508	561	30	37	
15	1	1	0	0	509	513	507	561	30	37	
0	1	1	0	0	508	515	510	561	30	37	
1	1	1	0	0	509	517	508	560	30	37	
2	1	1	0	0	508	513	509	560	30	37	
3	1	1	0	0	512	518	510	561	30	37	
4	1	1	0	0	510	525	508	560	30	37	
5	1	1	0	0	510	524	508	560	30	37	
6	1	1	0	0	510	523	511	561	30	37	
7	1	1	0	0	509	510	510	561	30	37	
8	1	1	0	0	509	502	510	560	30	37	
9	1	1	0	0	510	508	510	560	30	37	
10	1	1	0	0	511	510	509	560	30	37	
11	1	1	0	0	510	515	512	560	30	37	
12	1	1	0	0	510	516	510	560	30	37	
13	1	1	0	0	510	515	511	560	30	37	
14	1	1	0	0	510	519	509	560	30	37	
15	1	1	0	0	511	529	508	560	30	37	
0	1	1	0	0	510	531	508	560	30	37	
1	1	1	0	0	510	524	507	560	30	37	
2	1	1	0	0	511	519	508	561	30	37	
3	1	1	0	0	510	518	508	560	30	37	
4	1	1	0	0	509	520	509	561	30	37	
5	1	1	0	0	510	515	511	560	30	37	
6	1	1	0	0	508	515	510	559	30	37	
7	1	1	0	0	510	506	509	559	30	37	
8	1	1	0	0	510	494	509	560	30	37	
9	1	1	0	0	508	472	507	560	30	37	
10	1	1	0	0	511	484	507	560	30	37	
11	1	1	0	0	508	504	506	560	30	37	
12	1	1	0	0	511	500	509	560	30	37	
13	1	1	0	0	511	505	510	560	30	37	
14	1	1	0	0	510	524	507	560	30	37	
15	1	1	0	0	510	529	509	560	30	37	
0	1	1	0	0	509	520	509	559	30	37	
1	1	1	0	0	508	487	508	560	30	37	
2	1	1	0	0	510	497	508	560	30	37	
3	1	1	0	0	510	523	508	560	30	37	
4	1	1	0	0	510	525	508	560	30	37	
5	1	1	0	0	509	524	511	561	30	37	
6	1	1	0	0	510	524	510	560	30	37	
7	1	1	0	0	510	523	510	561	30	37	
8	1	1	0	0	510	521	507	561	30	37	
9	1	1	0	0	510	519	510	560	30	37	
10	1	1	0	0	508	514	511	560	30	37	
11	1	1	0	0	509	517	511	560	30	37	
12	1	1	0	0	508	519	510	560	30	37	
13	1	1	0	0	510	516	510	560	30	37	
14	1	1	0	0	512	509	510	560	30	37	
15	1	1	0	0	511	514	509	560	30	37	
0	1	1	0	0	512	519	508	560	30	37	
1	1	1	0	0	510	515	508	561	30	37	
2	1	1	0	0	511	514	508	561	30	37	
3	1	1	0	0	510	516	509	560	30	37	
4	1	1	0	0	511	512	509	560	30	37	
5	1	1	0	0	510	511	508	560	30	37	
6	1	1	0	0	507	511	508	560	30	37	
7	1	1	0	0	512	516	505	560	30	37	
8	1	1	0	0	512	502	509	560	30	37	
9	1	1	0	0	508	494	509	561	30	37	
10	1	1	0	0	510	500	511	561	30	37	
11	1	1	0	0	510	510	510	561	30	37	
12	1	1	0	0	511	517	508	561	30	37	
13	1	1	0	0	510	518	508	560	30	37	
14	1	1	0	0	511	515	509	560	30	37	
15	1	1	0	0	510	517	509	560	30	37	
0	1	1	0	0	510	516	510	560	30	37	
1	1	1	0	0	511	513	510	560	30	37	
2	1	1	0	0	509	514	509	561	30	37	
3	1	1	0	0	511	515	508	561	30	37	
4	1	1	0	0	508	516	510	560	30	37	
5	1	1	0	0	507	516	510	560	30	37	
6	1	1	0	0	511	514	508	561	30	37	
7	1	1	0	0	510	518	508	561	30	37	
8	1	1	0	0	510	517	508	561	30	37	
9	1	1	0	0	510	511	507	560	30	37	
10	1	1	0	0	508	511	508	560	30	37	
11	1	1	0	0	508	514	509	560	30	37	
12	1	1	0	0	511	515	509	560	30	37	
13	1	1	0	0	512	521	510	560	30	37	
14	1	1	0	0	510	521	509	560	30	37	
15	1	1	0	0	511	522	510	560	30	37	
0	1	1	0	0	510	519	510	561	30	37	
1	1	1	0	0	509	496	507	561	30	37	
2	1	1	0	0	511	477	508	561	30	37	
3	1	1	0	0	510	496	508	560	30	37	
4	1	1	0	0	509	511	509	560	30	37	
5	1	1	0	0	509	522	511	560	30	37	
6	1	1	0	0	509	518	508	559	30	37	
7	1	1	0	0	511	515	508	560	30	37	
8	1	1	0	0	511	515	509	560	30	37	
9	1	1	0	0	510	514	510	559	30	37	
10	1	1	0	0	509	515	508	560	30	37	
11	1	1	0	0	510	513	510	561	30	37	
12	1	1	0	0	509	512	510	561	30	37	
13	1	1	0	0	512	516	511	560	30	37	
14	1	1	0	0	509	525	510	560	30	37	
15	1	1	0	0	508	522	508	560	30	37	
0	1	1	0	0	510	528	510	561	30	37	
1	1	1	0	0	511	531	508	560	30	37	
2	1	1	0	0	508	524	508	560	30	37	
3	1	1	0	0	510	516	509	560	30	37	
4	1	1	0	0	511	513	509	560	30	37	
5	1	1	0	0	509	513	510	561	30	37	
6	1	1	0	0	509	502	509	560	30	37	
7	1	1	0	0	510	480	507	560	30	37	
8	1	1	0	0	510	491	505	560	30	37	
9	1	1	0	0	510	486	509	560	30	37	
10	1	1	0	0	511	492	508	560	30	37	
11	1	1	0	0	511	504	506	559	30	37	
12	1	1	0	0	509	529	508	560	30	37	
13	1	1	0	0	508	524	506	560	30	37	
14	1	1	0	0	510	517	507	560	30	37	
15	1	1	0	0	511	493	508	560	30	37	
0	1	1	0	0	509	487	510	560	30	37	
1	1	1	0	0	509	516	510	560	30	37	
2	1	1	0	0	510	528	511	560	30	37	
3	1	1	0	0	510	526	508	560	30	37	
4	1	1	0	0	509	527	511	560	30	37	
5	1	1	0	0	511	527	511	560	30	37	
6	1	1	0	0	511	526	511	560	30	37	
7	1	1	0	0	510	522	508	559	30	37	
8	1	1	0	0	508	503	511	560	30	37	
9	1	1	0	0	511	493	510	560	30	37	
10	1	1	0	0	511	506	509	560	30	37	
11	1	1	0	0	509	519	510	560	30	37	
12	1	1	0	0	511	521	510	560	30	37	
13	1	1	0	0	509	518	509	560	30	37	
14	1	1	0	0	507	515	510	560	30	37	
15	1	1	0	0	511	510	510	560	30	37	
0	1	1	0	0	509	508	508	560	30	37	
1	1	1	0	0	511	512	511	560	30	37	
2	1	1	0	0	509	523	509	560	30	37	
3	1	1	0	0	509	531	509	560	30	37	
4	1	1	0	0	509	524	508	560	30	37	
5	1	1	0	0	510	518	509	560	30	37	
6	1	1	0	0	511	514	509	560	30	37	
7	1	1	0	0	509	512	510	561	30	37	
8	1	1	0	0	511	509	508	561	30	37	
9	1	1	0	0	508	503	509	561	30	37	
10	1	1	0	0	510	499	509	561	30	37	
11	1	1	0	0	509	499	509	561	30	37	
12	1	1	0	0	512	502	508	561	30	37	
13	1	1	0	0	512	513	508	560	30	37	
14	1	1	0	0	510	519	506	560	30	37	
15	1	1	0	0	509	520	508	561	30	37	
0	1	1	0	0	509	515	510	560	30	37	
1	1	1	0	0	509	515	507	561	30	37	
2	1	1	0	0	510	513	508	561	30	37	
3	1	1	0	0	511	512	510	561	30	37	
4	1	1	0	0	511	513	509	561	30	37	
5	1	1	0	0	510	512	510	561	30	37	
6	1	1	0	0	512	513	510	560	30	37	
7	1	1	0	0	511	515	510	560	30	37	
8	1	1	0	0	510	516	509	560	30	37	
9	1	1	0	0	510	520	509	560	30	37	
10	1	1	0	0	508	517	509	561	30	37	
11	1	1	0	0	509	513	511	561	30	37	
12	1	1	0	0	509	514	509	561	30	37	
13	1	1	0	0	509	514	510	561	30	37	
14	1	1	0	0	511	512	509	561	30	37	
15	1	1	0	0	509	514	510	561	30	37	
0	1	1	0	0	512	512	510	560	30	37	
1	1	1	0	0	511	512	509	560	30	37	
2	1	1	0	0	509	499	508	561	30	37	
3	1	1	0	0	510	510	510	560	30	37	
4	1	1	0	0	510	518	510	560	30	37	
5	1	1	0	0	508	516	509	560	30	37	
6	1	1	0	0	509	521	509	560	30	37	
7	1	1	0	0	509	524	510	561	30	37	
8	1	1	0	0	509	510	509	561	30	37	
9	1	1	0	0	510	498	507	561	30	37	
10	1	1	0	0	511	502	510	561	30	37	
11	1	1	0	0	510	505	508	561	30	37	
12	1	1	0	0	510	495	507	561	30	37	
13	1	1	0	0	510	511	508	561	30	37	
14	1	1	0	0	509	524	507	561	30	37	
15	1	1	0	0	508	527	508	561	30	37	
0	1	1	0	0	506	526	508	560	30	37	
1	1	1	0	0	508	527	508	561	30	37	
2	1	1	0	0	510	524	509	562	30	37	
3	1	1	0	0	510	519	508	561	30	37	
4	1	1	0	0	511	514	511	561	30	37	
5	1	1	0	0	512	518	509	561	30	37	
6	1	1	0	0	509	516	511	561	30	37	
7	1	1	0	0	512	504	508	561	30	37	
8	1	1	0	0	512	499	508	560	30	37	
9	1	1	0	0	509	482	508	561	30	37	
10	1	1	0	0	510	480	509	561	30	37	
11	1	1	0	0	510	517	510	560	30	37	
12	1	1	0	0	511	514	507	561	30	37	
13	1	1	0	0	509	508	508	561	30	37	
14	1	1	0	0	510	515	508	562	30	37	
15	1	1	0	0	509	505	509	562	30	37	
0	1	1	0	0	511	508	510	561	30	37	
1	1	1	0	0	509	522	509	561	30	37	
2	1	1	0	0	509	528	509	561	30	37	
3	1	1	0	0	510	529	508	561	30	37	
4	1	1	0	0	509	516	510	561	30	37	
5	1	1	0	0	511	515	510	561	30	37	
6	1	1	0	0	512	517	510	561	30	37	
7	1	1	0	0	508	520	508	562	30	37	
8	1	1	0	0	509	525	509	562	30	37	
9	1	1	0	0	509	521	510	562	30	37	
10	1	1	0	0	512	515	510	562	30	37	
11	1	1	0	0	510	501	508	562	30	37	
12	1	1	0	0	508	488	510	561	30	37	
13	1	1	0	0	511	503	510	561	30	37	
14	1	1	0	0	508	511	509	561	30	37	
15	1	1	0	0	509	522	508	561	30	37	
0	1	1	0	0	511	527	508	562	30	37	
1	1	1	0	0	509	528	508	562	30	37	
2	1	1	0	0	508	524	508	562	30	37	
3	1	1	0	0	509	520	511	561	30	37	
4	1	1	0	0	511	500	508	562	30	37	
5	1	1	0	0	509	494	509	562	30	37	
6	1	1	0	0	508	497	508	561	30	37	
7	1	1	0	0	511	506	507	562	30	37	
8	1	1	0	0	511	519	509	561	30	37	
9	1	1	0	0	510	522	510	561	30	37	
10	1	1	0	0	512	520	510	562	30	37	
11	1	1	0	0	510	514	511	561	30	37	
12	1	1	0	0	510	513	510	562	30	37	
13	1	1	0	0	508	516	509	561	30	37	
14	1	1	0	0	511	517	509	562	30	37	
15	1	1	0	0	511	517	510	562	30	37	
0	1	1	0	0	510	516	509	561	30	37	
1	1	1	0	0	512	514	509	561	30	37	
2	1	1	0	0	511	517	509	561	30	37	
3	1	1	0	0	510	520	510	561	30	37	
4	1	1	0	0	508	518	507	562	30	37	
5	1	1	0	0	510	514	509	561	30	37	
6	1	1	0	0	509	514	509	561	30	37	
7	1	1	0	0	509	513	508	562	30	37	
8	1	1	0	0	511	515	510	562	30	37	
9	1	1	0	0	509	515	508	562	30	37	
10	1	1	0	0	510	508	509	562	30	37	
11	1	1	0	0	510	497	509	562	30	37	
12	1	1	0	0	508	504	509	561	30	37	
13	1	1	0	0	508	514	508	561	30	37	
14	1	1	0	0	509	520	507	561	30	37	
15	1	1	0	0	510	521	509	561	30	37	
0	1	1	0	0	511	502	508	562	30	37	
1	1	1	0	0	510	505	510	561	30	37	
2	1	1	0	0	511	515	508	562	30	37	
3	1	1	0	0	508	515	508	562	30	37	
4	1	1	0	0	508	504	508	562	30	37	
5	1	1	0	0	509	501	509	561	30	37	
6	1	1	0	0	507	511	507	561	30	37	
7	1	1	0	0	508	513	509	561	30	37	
8	1	1	0	0	508	513	509	561	30	37	
9	1	1	0	0	507	517	509	561	30	37	
10	1	1	0	0	508	516	508	562	30	37	
11	1	1	0	0	509	520	510	562	30	37	
12	1	1	0	0	510	524	509	562	30	37	
13	1	1	0	0	511	530	508	562	30	37	
14	1	1	0	0	511	543	508	562	30	37	
15	1	1	0	0	511	542	509	562	30	37	
0	1	1	0	0	509	530	511	562	30	37	
1	1	1	0	0	511	499	511	562	30	37	
2	1	1	0	0	512	473	511	561	30	37	
3	1	1	0	0	510	501	511	561	30	37	
4	1	1	0	0	511	507	510	561	30	37	
5	1	1	0	0	510	481	508	562	30	37	
6	1	1	0	0	511	483	510	562	30	37	
7	1	1	0	0	511	498	508	563	30	37	
8	1	1	0	0	508	510	507	563	30	37	
9	1	1	0	0	509	513	506	563	30	37	
10	1	1	0	0	509	504	509	563	30	37	
11	1	1	0	0	509	512	510	562	30	37	
12	1	1	0	0	511	519	509	561	30	37	
13	1	1	0	0	508	515	509	562	30	37	
14	1	1	0	0	511	519	509	562	30	37	
15	1	1	0	0	510	525	508	562	30	37	
0	1	1	0	0	511	529	509	562	30	37	
1	1	1	0	0	510	526	510	562	30	37	
2	1	1	0	0	509	523	508	562	30	37	
3	1	1	0	0	509	525	507	563	30	37	
4	1	1	0	0	509	522	510	563	30	37	
5	1	1	0	0	508	521	510	562	30	37	
6	1	1	0	0	510	516	509	562	30	37	
7	1	1	0	0	511	514	510	563	30	37	
8	1	1	0	0	511	517	508	563	30	37	
9	1	1	0	0	509	513	509	563	30	37	
10	1	1	0	0	510	502	508	563	30	37	
11	1	1	0	0	509	498	508	562	30	37	
12	1	1	0	0	510	507	508	563	30	37	
13	1	1	0	0	508	515	508	563	30	37	
14	1	1	0	0	511	520	509	562	30	37	
15	1	1	0	0	511	519	509	563	30	37	
0	1	1	0	0	510	519	507	563	30	37	
1	1	1	0	0	510	520	510	562	30	37	
2	1	1	0	0	511	518	508	562	30	37	
3	1	1	0	0	509	519	508	563	30	37	
4	1	1	0	0	509	518	507	563	30	37	
5	1	1	0	0	509	511	509	562	30	37	
6	1	1	0	0	508	513	510	562	30	37	
7	1	1	0	0	511	515	509	563	30	37	
8	1	1	0	0	510	510	508	563	30	37	
9	1	1	0	0	509	492	509	563	30	37	
10	1	1	0	0	510	487	511	562	30	37	
11	1	1	0	0	510	494	509	563	30	37	
12	1	1	0	0	510	487	509	563	30	37	
13	1	1	0	0	511	497	510	562	30	37	
14	1	1	0	0	509	515	509	562	30	37	
15	1	1	0	0	511	521	511	562	30	37	
0	1	1	0	0	510	520	510	563	30	37	
1	1	1	0	0	509	522	509	563	30	37	
2	1	1	0	0	508	526	510	563	30	37	
3	1	1	0	0	508	521	510	563	30	37	
4	1	1	0	0	508	514	508	563	30	37	
5	1	1	0	0	508	512	507	563	30	37	
6	1	1	0	0	511	520	509	563	30	37	
7	1	1	0	0	509	527	508	563	30	37	
8	1	1	0	0	511	527	510	563	30	37	
9	1	1	0	0	509	525	508	562	30	37	
10	1	1	0	0	510	525	506	562	30	37	
11	1	1	0	0	509	518	509	563	30	37	
12	1	1	0	0	511	504	510	562	30	37	
13	1	1	0	0	511	495	509	563	30	37	
14	1	1	0	0	511	496	506	563	30	37	
15	1	1	0	0	510	496	506	563	30	37	
0	1	1	0	0	511	505	508	563	30	37	
1	1	1	0	0	509	514	509	563	30	37	
2	1	1	0	0	512	515	508	563	30	37	
3	1	1	0	0	510	517	509	562	30	37	
4	1	1	0	0	512	519	508	562	30	37	
5	1	1	0	0	510	518	510	563	30	37	
6	1	1	0	0	510	516	511	562	30	37	
7	1	1	0	0	508	521	510	563	30	37	
8	1	1	0	0	511	524	509	563	30	37	
9	1	1	0	0	510	531	507	562	30	37	
10	1	1	0	0	511	535	508	563	30	37	
11	1	1	0	0	510	528	508	562	30	37	
12	1	1	0	0	510	504	507	562	30	37	
13	1	1	0	0	508	481	510	562	30	37	
14	1	1	0	0	509	460	511	562	30	37	
15	1	1	0	0	511	482	510	562	30	37	
0	1	1	0	0	510	502	509	562	30	37	
1	1	1	0	0	511	514	510	562	30	37	
2	1	1	0	0	508	519	510	563	30	37	
3	1	1	0	0	508	520	509	562	30	37	
4	1	1	0	0	510	524	509	563	30	37	
5	1	1	0	0	512	525	509	562	30	37	
6	1	1	0	0	511	525	510	562	30	37	
7	1	1	0	0	510	524	510	562	30	37	
8	1	1	0	0	508	524	507	561	30	37	
9	1	1	0	0	510	522	510	561	30	37	
10	1	1	0	0	510	519	508	561	30	37	
11	1	1	0	0	510	514	508	562	30	37	
12	1	1	0	0	510	511	509	561	30	37	
13	1	1	0	0	510	512	510	561	30	37	
14	1	1	0	0	508	499	508	562	30	37	
15	1	1	0	0	508	503	508	562	30	37	
0	1	1	0	0	507	516	507	562	30	37	
1	1	1	0	0	511	525	510	562	30	37	
2	1	1	0	0	510	529	510	561	30	37	
3	1	1	0	0	511	531	510	561	30	37	
4	1	1	0	0	510	518	510	562	30	37	
5	1	1	0	0	513	512	509	562	30	37	
6	1	1	0	0	511	511	509	561	30	37	
7	1	1	0	0	511	507	509	561	30	37	
8	1	1	0	0	511	500	510	561	30	37	
9	1	1	0	0	511	489	512	562	30	37	
10	1	1	0	0	506	494	508	562	30	37	
11	1	1	0	0	508	497	508	562	30	37	
12	1	1	0	0	508	516	508	561	30	37	
13	1	1	0	0	509	528	508	561	30	37	
14	1	1	0	0	509	528	508	561	30	37	
15	1	1	0	0	510	515	506	561	30	37	
0	1	1	0	0	509	508	507	561	30	37	
1	1	1	0	0	509	503	510	561	30	37	
2	1	1	0	0	510	511	508	561	30	37	
3	1	1	0	0	509	516	508	561	30	37	
4	1	1	0	0	511	518	508	561	30	37	
5	1	1	0	0	510	517	510	562	30	37	
6	1	1	0	0	511	519	509	561	30	37	
7	1	1	0	0	510	515	509	561	30	37	
8	1	1	0	0	510	515	509	561	30	37	
9	1	1	0	0	511	515	508	561	30	37	
10	1	1	0	0	511	516	509	561	30	37	
11	1	1	0	0	512	515	509	561	30	37	
12	1	1	0	0	510	514	510	562	30	37	
13	1	1	0	0	510	515	508	562	30	37	
14	1	1	0	0	511	518	509	562	30	37	
15	1	1	0	0	510	515	507	562	30	37	
0	1	1	0	0	508	512	508	562	30	37	
1	1	1	0	0	509	508	509	562	30	37	
2	1	1	0	0	510	515	510	562	30	37	
3	1	1	0	0	508	518	507	562	30	37	
4	1	1	0	0	511	514	507	562	30	37	
5	1	1	0	0	509	512	507	561	30	37	
6	1	1	0	0	511	517	508	561	30	37	
7	1	1	0	0	509	510	510	561	30	37	
8	1	1	0	0	510	499	511	561	30	37	
9	1	1	0	0	511	505	512	561	30	37	
10	1	1	0	0	509	514	509	563	30	37	
11	1	1	0	0	510	519	509	563	30	37	
12	1	1	0	0	511	522	508	561	30	37	
13	1	1	0	0	509	520	505	562	30	37	
14	1	1	0	0	509	519	509	561	30	37	
15	1	1	0	0	511	512	511	562	30	37	
0	1	1	0	0	511	509	509	562	30	37	
1	1	1	0	0	511	513	509	561	30	37	
2	1	1	0	0	508	504	510	562	30	37	
3	1	1	0	0	510	527	507	563	30	37	
4	1	1	0	0	507	537	508	563	30	37	
5	1	1	0	0	510	525	510	563	30	37	
6	1	1	0	0	508	482	508	563	30	37	
7	1	1	0	0	509	459	508	563	30	37	
8	1	1	0	0	511	499	508	563	30	37	
9	1	1	0	0	509	504	509	562	30	37	
10	1	1	0	0	511	499	511	563	30	37	
11	1	1	0	0	509	519	509	562	30	37	
12	1	1	0	0	508	527	507	562	30	37	
13	1	1	0	0	509	521	507	562	30	37	
14	1	1	0	0	509	522	508	563	30	37	
15	1	1	0	0	512	520	507	563	30	37	
0	1	1	0	0	511	520	510	563	30	37	
1	1	1	0	0	510	512	508	563	30	37	
2	1	1	0	0	510	506	510	563	30	37	
3	1	1	0	0	508	503	512	562	30	37	
4	1	1	0	0	510	507	509	563	30	37	
5	1	1	0	0	510	505	508	562	30	37	
6	1	1	0	0	509	512	509	562	30	37	
7	1	1	0	0	510	520	510	562	30	37	
8	1	1	0	0	510	521	512	562	30	37	
9	1	1	0	0	510	519	511	563	30	37	
10	1	1	0	0	511	513	510	563	30	37	
11	1	1	0	0	510	518	510	563	30	37	
12	1	1	0	0	509	520	510	563	30	37	
13	1	1	0	0	509	522	510	563	30	37	
14	1	1	0	0	511	524	510	563	30	37	
15	1	1	0	0	512	523	508	562	30	37	
0	1	1	0	0	513	524	508	562	30	37	
1	1	1	0	0	510	513	508	563	30	37	
2	1	1	0	0	508	508	508	562	30	37	
3	1	1	0	0	509	512	509	563	30	37	
4	1	1	0	0	510	516	508	563	30	37	
5	1	1	0	0	510	514	509	563	30	37	
6	1	1	0	0	509	497	508	563	30	37	
7	1	1	0	0	508	499	509	562	30	37	
8	1	1	0	0	508	514	508	563	30	37	
9	1	1	0	0	511	518	510	562	30	37	
10	1	1	0	0	511	518	508	562	30	37	
11	1	1	0	0	511	518	508	562	30	37	
12	1	1	0	0	510	514	507	562	30	37	
13	1	1	0	0	510	512	508	563	30	37	
14	1	1	0	0	510	519	509	563	30	37	
15	1	1	0	0	510	513	510	563	30	37	
0	1	1	0	0	508	505	509	563	30	37	
1	1	1	0	0	508	500	506	563	30	37	
2	1	1	0	0	511	502	507	563	30	37	
3	1	1	0	0	508	507	507	563	30	37	
4	1	1	0	0	506	515	510	563	30	37	
5	1	1	0	0	509	514	510	563	30	37	
6	1	1	0	0	508	518	511	562	30	37	
7	1	1	0	0	509	515	507	563	30	37	
8	1	1	0	0	508	515	510	563	30	37	
9	1	1	0	0	510	516	510	563	30	37	
10	1	1	0	0	510	518	511	563	30	37	
11	1	1	0	0	509	513	511	564	30	37	
12	1	1	0	0	510	505	509	564	30	37	
13	1	1	0	0	509	510	509	564	30	37	
14	1	1	0	0	510	513	511	563	30	37	
15	1	1	0	0	510	513	508	563	30	37	
0	1	1	0	0	509	511	509	563	30	37	
1	1	1	0	0	508	511	511	563	30	37	
2	1	1	0	0	508	514	508	563	30	37	
3	1	1	0	0	509	518	508	564	30	37	
4	1	1	0	0	512	520	509	564	30	37	
5	1	1	0	0	509	516	509	564	30	37	
6	1	1	0	0	510	503	506	564	30	37	
7	1	1	0	0	510	509	509	565	30	37	
8	1	1	0	0	511	517	510	564	30	37	
9	1	1	0	0	509	517	509	564	30	37	
10	1	1	0	0	511	512	508	564	30	37	
11	1	1	0	0	510	511	508	564	30	37	
12	1	1	0	0	508	514	509	563	30	37	
13	1	1	0	0	511	521	509	564	30	37	
14	1	1	0	0	510	534	511	563	30	37	
15	1	1	0	0	511	540	510	564	30	37	
0	1	1	0	0	512	526	508	564	30	37	
1	1	1	0	0	511	526	509	564	30	37	
2	1	1	0	0	510	503	507	564	30	37	
3	1	1	0	0	513	451	507	563	30	37	
4	1	1	0	0	512	475	508	563	30	37	
5	1	1	0	0	510	502	509	563	30	37	
6	1	1	0	0	511	515	509	562	30	37	
7	1	1	0	0	510	512	508	562	30	37	
8	1	1	0	0	509	524	510	563	30	37	
9	1	1	0	0	509	530	512	563	30	37	
10	1	1	0	0	509	531	508	563	30	37	
11	1	1	0	0	510	519	509	562	30	37	
12	1	1	0	0	511	509	510	562	30	37	
13	1	1	0	0	511	487	510	562	30	37	
14	1	1	0	0	511	494	510	563	30	37	
15	1	1	0	0	511	492	510	563	30	37	
0	1	1	0	0	511	500	508	562	30	37	
1	1	1	0	0	508	508	510	562	30	37	
2	1	1	0	0	508	522	509	562	30	37	
3	1	1	0	0	508	525	508	562	30	37	
4	1	1	0	0	512	526	510	562	30	37	
5	1	1	0	0	511	527	508	563	30	37	
6	1	1	0	0	510	527	508	562	30	37	
7	1	1	0	0	513	526	509	563	30	37	
8	1	1	0	0	512	524	510	563	30	37	
9	1	1	0	0	512	519	508	563	30	37	
10	1	1	0	0	510	519	509	564	30	37	
11	1	1	0	0	510	519	511	563	30	37	
12	1	1	0	0	510	518	509	563	30	37	
13	1	1	0	0	510	518	511	563	30	37	
14	1	1	0	0	510	512	508	563	30	37	
15	1	1	0	0	511	508	508	563	30	37	
0	1	1	0	0	510	515	510	563	30	37	
1	1	1	0	0	511	518	509	564	30	37	
2	1	1	0	0	508	513	508	564	30	37	
3	1	1	0	0	511	492	508	566	30	37	
4	1	1	0	0	511	500	510	564	30	37	
5	1	1	0	0	508	507	510	565	30	37	
6	1	1	0	0	508	513	509	565	30	37	
7	1	1	0	0	511	513	509	564	30	37	
8	1	1	0	0	511	513	508	565	30	37	
9	1	1	0	0	509	514	510	564	30	37	
10	1	1	0	0	509	517	509	565	30	37	
11	1	1	0	0	511	514	510	565	30	37	
12	1	1	0	0	509	516	508	565	30	37	
13	1	1	0	0	510	514	508	566	30	37	
14	1	1	0	0	508	517	508	565	30	37	
15	1	1	0	0	510	513	509	566	30	37	
0	1	1	0	0	509	521	511	566	30	37	
1	1	1	0	0	510	518	510	565	30	37	
2	1	1	0	0	510	512	507	565	30	37	
3	1	1	0	0	511	510	507	565	30	37	
4	1	1	0	0	508	507	509	565	30	37	
5	1	1	0	0	508	515	509	565	30	37	
6	1	1	0	0	509	508	508	565	30	37	
7	1	1	0	0	510	501	508	566	30	37	
8	1	1	0	0	509	502	509	565	30	37	
9	1	1	0	0	510	503	508	566	30	37	
10	1	1	0	0	510	508	511	565	30	37	
11	1	1	0	0	509	514	509	566	30	37	
12	1	1	0	0	510	514	508	565	30	37	
13	1	1	0	0	508	513	508	565	30	37	
14	1	1	0	0	511	513	507	564	30	37	
15	1	1	0	0	510	516	510	565	30	37	
0	1	1	0	0	511	517	510	565	30	37	
1	1	1	0	0	509	514	509	564	30	37	
2	1	1	0	0	510	515	510	565	30	37	
3	1	1	0	0	511	516	509	565	30	37	
4	1	1	0	0	512	516	510	565	30	37	
5	1	1	0	0	510	519	510	565	30	37	
6	1	1	0	0	510	523	510	565	30	37	
7	1	1	0	0	511	531	511	564	30	37	
8	1	1	0	0	509	539	509	564	30	37	
9	1	1	0	0	511	535	512	563	30	37	
10	1	1	0	0	511	527	510	564	30	37	
11	1	1	0	0	511	493	509	564	30	37	
12	1	1	0	0	511	477	509	563	30	37	
13	1	1	0	0	510	501	508	563	30	37	
14	1	1	0	0	511	513	510	563	30	37	
15	1	1	0	0	507	499	510	563	30	37	
0	1	1	0	0	511	479	508	564	30	37	
1	1	1	0	0	510	492	507	563	30	37	
2	1	1	0	0	510	512	506	563	30	37	
3	1	1	0	0	510	529	508	563	30	37	
4	1	1	0	0	508	524	508	563	30	37	
5	1	1	0	0	510	504	510	562	30	37	
6	1	1	0	0	510	496	511	562	30	37	
7	1	1	0	0	507	509	510	562	30	37	
8	1	1	0	0	508	519	508	563	30	37	
9	1	1	0	0	508	527	510	562	30	37	
10	1	1	0	0	512	515	508	562	30	37	
11	1	1	0	0	511	510	511	563	30	37	
12	1	1	0	0	509	516	509	563	30	37	
13	1	1	0	0	510	520	509	562	30	37	
14	1	1	0	0	508	521	508	562	30	37	
15	1	1	0	0	511	518	508	563	30	37	
0	1	1	0	0	510	517	510	562	30	37	
1	1	1	0	0	509	519	511	562	30	37	
2	1	1	0	0	510	516	509	562	30	37	
3	1	1	0	0	510	519	509	562	30	37	
4	1	1	0	0	510	523	509	563	30	37	
5	1	1	0	0	511	521	511	562	30	37	
6	1	1	0	0	510	515	511	563	30	37	
7	1	1	0	0	511	515	509	563	30	37	
8	1	1	0	0	508	521	507	563	30	37	
9	1	1	0	0	508	520	508	563	30	37	
10	1	1	0	0	511	516	508	562	30	37	
11	1	1	0	0	512	513	508	562	30	37	
12	1	1	0	0	510	491	511	562	30	37	
13	1	1	0	0	512	496	511	562	30	37	
14	1	1	0	0	512	510	509	562	30	37	
15	1	1	0	0	509	510	509	562	30	37	
0	1	1	0	0	509	510	509	562	30	37	
1	1	1	0	0	509	512	508	563	30	37	
2	1	1	0	0	510	516	508	563	30	37	
3	1	1	0	0	511	518	507	563	30	37	
4	1	1	0	0	512	517	509	563	30	37	
5	1	1	0	0	512	504	508	563	30	37	
6	1	1	0	0	509	507	508	563	30	37	
7	1	1	0	0	509	508	509	563	30	37	
8	1	1	0	0	509	497	508	563	30	37	
9	1	1	0	0	509	505	510	563	30	37	
10	1	1	0	0	507	520	508	563	30	36	
11	1	1	0	0	510	523	507	563	30	37	
12	1	1	0	0	507	518	509	563	30	37	
13	1	1	0	0	508	515	510	563	30	37	
14	1	1	0	0	508	514	509	562	30	37	
15	1	1	0	0	509	508	507	563	30	37	
0	1	1	0	0	511	504	508	563	30	37	
1	1	1	0	0	511	508	508	562	30	37	
2	1	1	0	0	510	513	509	563	30	37	
3	1	1	0	0	511	519	509	563	30	37	
4	1	1	0	0	511	520	510	563	30	36	
5	1	1	0	0	508	521	508	563	30	36	
6	1	1	0	0	509	521	510	563	30	36	
7	1	1	0	0	511	514	511	564	30	36	
8	1	1	0	0	509	517	510	563	30	36	
9	1	1	0	0	511	518	511	564	30	36	
10	1	1	0	0	512	518	510	564	30	37	
11	1	1	0	0	511	518	511	563	30	37	
12	1	1	0	0	511	518	512	563	30	36	
13	1	1	0	0	510	515	509	563	30	36	
14	1	1	0	0	507	509	508	563	30	36	
15	1	1	0	0	510	507	508	564	30	36	
0	1	1	0	0	511	507	508	563	30	36	
1	1	1	0	0	511	508	508	564	30	36	
2	1	1	0	0	508	506	509	564	30	36	
3	1	1	0	0	507	505	508	564	30	37	
4	1	1	0	0	510	512	508	563	30	36	
5	1	1	0	0	509	515	510	563	30	37	
6	1	1	0	0	511	514	508	564	30	37	
7	1	1	0	0	508	515	507	564	30	36	
8	1	1	0	0	509	513	508	564	30	36	
9	1	1	0	0	509	514	505	564	30	36	
10	1	1	0	0	508	513	510	565	30	36	
11	1	1	0	0	511	518	508	565	30	36	
12	1	1	0	0	510	512	507	565	30	37	
13	1	1	0	0	510	506	508	565	30	37	
14	1	1	0	0	509	507	511	564	30	37	
15	1	1	0	0	511	521	511	564	30	37	
0	1	1	0	0	512	534	508	565	30	37	
1	1	1	0	0	512	542	509	564	30	37	
2	1	1	0	0	510	531	509	565	30	37	
3	1	1	0	0	512	516	510	565	30	37	
4	1	1	0	0	508	488	508	566	30	37	
5	1	1	0	0	511	471	510	566	30	37	
6	1	1	0	0	511	495	508	566	30	37	
7	1	1	0	0	507	495	507	567	30	37	
8	1	1	0	0	508	504	510	566	30	37	
9	1	1	0	0	508	517	510	566	30	37	
10	1	1	0	0	511	524	509	566	30	37	
11	1	1	0	0	510	513	510	565	30	37	
12	1	1	0	0	511	515	508	566	30	37	
13	1	1	0	0	510	503	510	566	30	37	
14	1	1	0	0	509	502	507	566	30	37	
15	1	1	0	0	511	519	509	566	30	37	
0	1	1	0	0	508	524	508	566	30	37	
1	1	1	0	0	510	525	508	567	30	37	
2	1	1	0	0	511	527	510	567	30	37	
3	1	1	0	0	509	515	511	567	30	37	
4	1	1	0	0	510	500	509	567	30	37	
5	1	1	0	0	510	496	510	566	30	37	
6	1	1	0	0	512	506	509	567	30	37	
7	1	1	0	0	508	514	511	566	30	37	
8	1	1	0	0	508	521	509	566	30	37	
9	1	1	0	0	510	523	509	567	30	37	
10	1	1	0	0	509	526	510	567	30	37	
11	1	1	0	0	511	522	511	567	30	37	
12	1	1	0	0	507	519	510	567	30	37	
13	1	1	0	0	511	509	510	567	30	37	
14	1	1	0	0	511	511	511	567	30	37	
15	1	1	0	0	511	515	510	567	30	37	
0	1	1	0	0	511	520	509	567	30	37	
1	1	1	0	0	511	521	510	566	30	37	
2	1	1	0	0	511	511	508	567	30	37	
3	1	1	0	0	511	507	508	566	30	37	
4	1	1	0	0	510	514	508	566	30	37	
5	1	1	0	0	511	513	508	567	30	37	
6	1	1	0	0	511	502	508	566	30	37	
7	1	1	0	0	511	505	510	567	30	37	
8	1	1	0	0	511	513	508	567	30	37	
9	1	1	0	0	511	516	509	567	30	37	
10	1	1	0	0	509	516	510	567	30	37	
11	1	1	0	0	509	520	508	566	30	37	
12	1	1	0	0	507	517	511	566	30	37	
13	1	1	0	0	511	513	509	566	30	37	
14	1	1	0	0	511	512	508	566	30	37	
15	1	1	0	0	509	513	508	567	30	37	
0	1	1	0	0	509	519	509	567	30	37	
1	1	1	0	0	511	525	507	567	30	37	
2	1	1	0	0	510	521	509	568	30	37	
3	1	1	0	0	508	510	507	567	30	37	
4	1	1	0	0	508	504	509	567	30	37	
5	1	1	0	0	507	513	511	567	30	37	
6	1	1	0	0	509	517	508	566	30	37	
7	1	1	0	0	511	512	509	568	30	37	
8	1	1	0	0	512	502	509	568	30	37	
9	1	1	0	0	512	484	509	568	30	37	
10	1	1	0	0	511	505	509	568	30	37	
11	1	1	0	0	511	521	508	568	30	37	
12	1	1	0	0	510	521	508	568	30	37	
13	1	1	0	0	509	518	508	569	30	37	
14	1	1	0	0	510	518	507	568	30	37	
15	1	1	0	0	511	518	508	568	30	37	
0	1	1	0	0	511	515	510	568	30	37	
1	1	1	0	0	511	510	511	568	30	37	
2	1	1	0	0	511	504	510	568	30	37	
3	1	1	0	0	509	510	509	568	30	37	
4	1	1	0	0	508	518	511	568	30	37	
5	1	1	0	0	508	515	510	568	30	37	
6	1	1	0	0	511	496	510	569	30	37	
7	1	1	0	0	512	505	511	569	30	37	
8	1	1	0	0	508	519	511	569	30	37	
9	1	1	0	0	513	520	509	569	30	37	
10	1	1	0	0	509	516	508	569	30	37	
11	1	1	0	0	510	528	509	569	30	37	
12	1	1	0	0	511	539	508	569	30	37	
13	1	1	0	0	510	534	510	568	30	37	
14	1	1	0	0	508	519	511	568	30	37	
15	1	1	0	0	509	488	508	569	30	37	
0	1	1	0	0	510	478	507	569	30	37	
1	1	1	0	0	511	507	510	569	30	37	
2	1	1	0	0	510	517	508	569	30	36	
3	1	1	0	0	508	515	506	569	30	37	
4	1	1	0	0	509	503	508	570	30	37	
5	1	1	0	0	509	501	509	570	30	37	
6	1	1	0	0	510	513	508	569	30	37	
7	1	1	0	0	510	513	509	569	30	37	
8	1	1	0	0	509	510	511	568	30	37	
9	1	1	0	0	508	500	508	568	30	37	
10	1	1	0	0	511	510	511	569	30	37	
11	1	1	0	0	508	519	509	568	30	37	
12	1	1	0	0	510	527	510	569	30	37	
13	1	1	0	0	511	526	508	568	30	37	
14	1	1	0	0	511	520	510	568	30	37	
15	1	1	0	0	510	516	509	570	30	37	
0	1	1	0	0	511	515	508	569	30	37	
1	1	1	0	0	511	510	507	570	30	37	
2	1	1	0	0	511	499	508	569	30	37	
3	1	1	0	0	512	508	508	569	30	37	
4	1	1	0	0	510	516	508	569	30	37	
5	1	1	0	0	511	519	509	568	30	37	
6	1	1	0	0	510	519	510	568	30	37	
7	1	1	0	0	510	522	510	568	30	37	
8	1	1	0	0	508	519	511	568	30	37	
9	1	1	0	0	508	518	510	569	30	37	
10	1	1	0	0	512	513	510	569	30	37	
11	1	1	0	0	510	515	509	569	30	37	
12	1	1	0	0	508	516	511	569	30	37	
13	1	1	0	0	508	516	511	569	30	37	
14	1	1	0	0	511	517	509	568	30	37	
15	1	1	0	0	509	515	509	568	30	37	
0	1	1	0	0	510	518	508	568	30	37	
1	1	1	0	0	512	511	507	568	30	37	
2	1	1	0	0	509	497	508	568	30	37	
3	1	1	0	0	510	493	509	568	30	37	
4	1	1	0	0	509	499	510	568	30	37	
5	1	1	0	0	508	504	510	567	30	37	
6	1	1	0	0	510	511	508	567	30	37	
7	1	1	0	0	509	521	510	567	30	37	
8	1	1	0	0	510	521	508	568	30	37	
9	1	1	0	0	509	520	508	567	30	37	
10	1	1	0	0	510	520	509	567	30	37	
11	1	1	0	0	511	523	509	567	30	37	
12	1	1	0	0	511	522	510	566	30	37	
13	1	1	0	0	511	515	506	567	30	37	
14	1	1	0	0	508	500	507	566	30	37	
15	1	1	0	0	510	501	508	566	30	37	
0	1	1	0	0	511	508	510	566	30	37	
1	1	1	0	0	511	510	510	566	30	37	
2	1	1	0	0	509	517	508	567	30	37	
3	1	1	0	0	508	523	510	567	30	37	
4	1	1	0	0	509	527	509	566	30	37	
5	1	1	0	0	511	526	508	565	30	37	
6	1	1	0	0	510	515	510	565	30	37	
7	1	1	0	0	511	519	509	566	30	37	
8	1	1	0	0	507	519	511	566	30	37	
9	1	1	0	0	510	519	507	565	30	37	
10	1	1	0	0	511	517	507	566	30	37	
11	1	1	0	0	508	511	507	565	30	37	
12	1	1	0	0	511	498	509	566	30	37	
13	1	1	0	0	512	495	509	566	30	37	
14	1	1	0	0	508	492	508	566	30	37	
15	1	1	0	0	508	507	508	566	30	37	
0	1	1	0	0	510	505	508	566	30	37	
1	1	1	0	0	510	516	510	566	30	37	
2	1	1	0	0	510	520	511	565	30	37	
3	1	1	0	0	509	504	510	566	30	37	
4	1	1	0	0	511	503	511	566	30	37	
5	1	1	0	0	510	511	510	566	30	37	
6	1	1	0	0	510	510	510	566	30	37	
7	1	1	0	0	512	504	508	566	30	37	
8	1	1	0	0	511	507	507	566	30	37	
9	1	1	0	0	510	511	507	566	30	37	
10	1	1	0	0	509	500	507	565	30	37	
11	1	1	0	0	512	504	505	565	30	37	
12	1	1	0	0	511	518	508	566	30	37	
13	1	1	0	0	508	525	510	565	30	37	
14	1	1	0	0	509	527	509	565	30	37	
15	1	1	0	0	508	528	510	565	30	37	
0	1	1	0	0	511	526	507	565	30	37	
1	1	1	0	0	508	520	510	565	30	37	
2	1	1	0	0	511	523	511	566	30	37	
3	1	1	0	0	508	518	509	565	30	37	
4	1	1	0	0	508	512	511	565	30	37	
5	1	1	0	0	510	511	510	566	30	37	
6	1	1	0	0	512	510	510	565	30	37	
7	1	1	0	0	511	511	510	565	30	37	
8	1	1	0	0	511	512	508	565	30	37	
9	1	1	0	0	510	512	511	564	30	37	
10	1	1	0	0	510	519	509	564	30	37	
11	1	1	0	0	511	520	510	566	30	37	
12	1	1	0	0	511	515	511	566	30	37	
13	1	1	0	0	511	515	509	566	30	37	
14	1	1	0	0	508	515	511	566	30	37	
15	1	1	0	0	510	511	508	565	30	37	
0	1	1	0	0	509	509	510	565	30	37	
1	1	1	0	0	509	510	510	564	30	37	
2	1	1	0	0	511	507	507	564	30	37	
3	1	1	0	0	510	499	510	565	30	37	
4	1	1	0	0	509	507	510	565	30	37	
5	1	1	0	0	510	517	508	565	30	37	
6	1	1	0	0	510	528	509	565	30	37	
7	1	1	0	0	511	531	510	565	30	37	
8	1	1	0	0	511	527	508	566	30	37	
9	1	1	0	0	510	513	510	565	30	37	
10	1	1	0	0	512	476	508	565	30	37	
11	1	1	0	0	510	461	509	565	30	37	
12	1	1	0	0	511	497	509	564	30	37	
13	1	1	0	0	508	518	508	565	30	37	
14	1	1	0	0	508	533	508	565	30	37	
15	1	1	0	0	507	535	508	565	30	37	
0	1	1	0	0	509	528	509	564	30	37	
1	1	1	0	0	510	523	509	565	30	37	
2	1	1	0	0	510	506	509	565	30	37	
3	1	1	0	0	510	503	510	566	30	37	
4	1	1	0	0	510	512	509	565	30	37	
5	1	1	0	0	509	515	510	564	30	37	
6	1	1	0	0	511	519	508	564	30	37	
7	1	1	0	0	509	522	509	563	30	37	
8	1	1	0	0	510	515	509	563	30	37	
9	1	1	0	0	508	517	508	563	30	37	
10	1	1	0	0	511	526	508	563	30	37	
11	1	1	0	0	509	524	507	564	30	37	
12	1	1	0	0	510	511	509	564	30	37	
13	1	1	0	0	511	515	510	564	30	37	
14	1	1	0	0	511	518	510	563	30	37	
15	1	1	0	0	511	492	507	564	30	37	
0	1	1	0	0	511	473	508	563	30	37	
1	1	1	0	0	511	493	511	563	30	37	
2	1	1	0	0	508	510	509	563	30	37	
3	1	1	0	0	509	516	508	563	30	37	
4	1	1	0	0	509	514	507	563	30	37	
5	1	1	0	0	509	517	510	562	30	37	
6	1	1	0	0	508	519	508	562	30	37	
7	1	1	0	0	511	517	510	563	30	37	
8	1	1	0	0	510	522	510	563	30	37	
9	1	1	0	0	511	525	509	562	30	37	
10	1	1	0	0	510	523	508	562	30	37	
11	1	1	0	0	510	512	509	561	30	37	
12	1	1	0	0	510	503	511	561	30	37	
13	1	1	0	0	510	510	510	561	30	37	
14	1	1	0	0	508	511	508	561	30	37	
15	1	1	0	0	510	517	509	561	30	37	
0	1	1	0	0	510	516	509	561	30	37	
1	1	1	0	0	512	512	509	561	30	37	
2	1	1	0	0	511	513	508	562	30	37	
3	1	1	0	0	509	511	509	561	30	37	
4	1	1	0	0	510	507	510	562	30	37	
5	1	1	0	0	508	507	508	561	30	37	
6	1	1	0	0	509	513	508	561	30	37	
7	1	1	0	0	509	517	508	560	30	37	
8	1	1	0	0	510	517	511	561	30	37	
9	1	1	0	0	510	515	510	561	30	37	
10	1	1	0	0	511	515	509	561	30	37	
11	1	1	0	0	510	514	508	562	30	37	
12	1	1	0	0	509	516	509	561	30	37	
13	1	1	0	0	510	515	509	562	30	37	
14	1	1	0	0	508	517	510	561	30	37	
15	1	1	0	0	509	519	509	561	30	37	
0	1	1	0	0	508	513	509	561	30	37	
1	1	1	0	0	510	506	510	561	30	37	
2	1	1	0	0	511	503	510	561	30	37	
3	1	1	0	0	511	502	507	561	30	37	
4	1	1	0	0	508	507	507	560	30	37	
5	1	1	0	0	510	511	508	561	30	37	
6	1	1	0	0	510	516	508	561	30	37	
7	1	1	0	0	508	519	507	561	30	37	
8	1	1	0	0	509	517	508	561	30	37	
9	1	1	0	0	510	518	508	561	30	37	
10	1	1	0	0	508	524	507	562	30	37	
11	1	1	0	0	510	518	508	561	30	37	
12	1	1	0	0	511	515	508	561	30	37	
13	1	1	0	0	511	515	509	561	30	37	
14	1	1	0	0	507	511	509	561	30	37	
15	1	1	0	0	509	512	509	561	30	37	
0	1	1	0	0	511	511	509	562	30	37	
1	1	1	0	0	508	512	508	562	30	37	
2	1	1	0	0	511	513	510	563	30	37	
3	1	1	0	0	510	510	508	563	30	37	
4	1	1	0	0	511	513	508	563	30	37	
5	1	1	0	0	510	517	510	561	30	37	
6	1	1	0	0	509	508	508	562	30	37	
7	1	1	0	0	510	508	508	563	30	37	
8	1	1	0	0	511	515	508	562	30	37	
9	1	1	0	0	511	516	509	563	30	37	
10	1	1	0	0	511	517	510	563	30	37	
11	1	1	0	0	510	515	511	563	30	37	
12	1	1	0	0	510	513	511	563	30	37	
13	1	1	0	0	508	504	508	564	30	37	
14	1	1	0	0	509	488	507	565	30	37	
15	1	1	0	0	509	502	509	564	30	37	
0	1	1	0	0	510	509	508	563	30	37	
1	1	1	0	0	509	515	509	563	30	37	
2	1	1	0	0	509	518	509	563	30	37	
3	1	1	0	0	509	518	510	564	30	37	
4	1	1	0	0	511	518	512	564	30	37	
5	1	1	0	0	511	514	510	564	30	37	
6	1	1	0	0	510	518	510	563	30	37	
7	1	1	0	0	509	522	510	564	30	37	
8	1	1	0	0	510	523	510	565	30	37	
9	1	1	0	0	511	521	510	564	30	37	
10	1	1	0	0	508	517	511	564	30	37	
11	1	1	0	0	509	508	511	564	30	37	
12	1	1	0	0	511	508	508	564	30	37	
13	1	1	0	0	512	507	510	564	30	37	
14	1	1	0	0	509	499	508	563	30	37	
15	1	1	0	0	510	497	508	563	30	37	
0	1	1	0	0	506	508	508	564	30	37	
1	1	1	0	0	508	514	508	563	30	37	
2	1	1	0	0	508	516	510	564	30	37	
3	1	1	0	0	510	521	508	563	30	37	
4	1	1	0	0	508	523	508	563	30	37	
5	1	1	0	0	509	523	510	563	30	37	
6	1	1	0	0	511	523	509	562	30	37	
7	1	1	0	0	511	521	511	563	30	37	
8	1	1	0	0	509	504	508	561	30	37	
9	1	1	0	0	511	512	507	561	30	37	
10	1	1	0	0	512	514	510	561	30	37	
11	1	1	0	0	508	504	509	562	30	37	
12	1	1	0	0	510	499	509	562	30	37	
13	1	1	0	0	511	499	510	561	30	37	
14	1	1	0	0	509	510	508	561	30	37	
15	1	1	0	0	510	530	508	561	30	37	
0	1	1	0	0	510	536	508	561	30	37	
1	1	1	0	0	510	529	510	561	30	37	
2	1	1	0	0	507	499	509	560	30	37	
3	1	1	0	0	508	463	510	560	30	37	
4	1	1	0	0	509	480	512	560	30	37	
5	1	1	0	0	510	515	509	559	30	37	
6	1	1	0	0	511	529	506	560	30	37	
7	1	1	0	0	510	527	509	560	30	37	
8	1	1	0	0	508	527	508	560	30	37	
9	1	1	0	0	511	529	508	560	30	37	
10	1	1	0	0	511	527	509	560	30	37	
11	1	1	0	0	509	513	508	560	30	37	
12	1	1	0	0	509	502	510	559	30	37	
13	1	1	0	0	510	497	509	559	30	37	
14	1	1	0	0	511	504	510	559	30	37	
15	1	1	0	0	509	512	509	559	30	37	
0	1	1	0	0	510	517	510	560	30	37	
1	1	1	0	0	511	519	509	560	30	37	
2	1	1	0	0	511	520	508	560	30	37	
3	1	1	0	0	509	522	509	560	30	37	
4	1	1	0	0	511	522	510	560	30	37	
5	1	1	0	0	510	522	509	560	30	37	
6	1	1	0	0	510	520	508	560	30	37	
7	1	1	0	0	508	517	508	560	30	37	
8	1	1	0	0	508	512	507	559	30	37	
9	1	1	0	0	509	513	510	560	30	37	
10	1	1	0	0	510	511	511	560	30	37	
11	1	1	0	0	510	510	510	560	30	37	
12	1	1	0	0	511	513	510	560	30	37	
13	1	1	0	0	511	519	508	560	30	37	
14	1	1	0	0	509	519	508	560	30	37	
15	1	1	0	0	509	500	509	561	30	37	
0	1	1	0	0	511	504	511	561	30	37	
1	1	1	0	0	508	512	510	560	30	37	
2	1	1	0	0	508	513	510	560	30	37	
3	1	1	0	0	509	512	509	560	30	37	
4	1	1	0	0	512	511	508	560	30	37	
5	1	1	0	0	510	514	508	560	30	37	
6	1	1	0	0	508	510	510	560	30	37	
7	1	1	0	0	508	511	510	561	30	37	
8	1	1	0	0	509	513	509	560	30	37	
9	1	1	0	0	511	512	510	561	30	37	
10	1	1	0	0	511	511	508	560	30	37	
11	1	1	0	0	509	515	508	560	30	37	
12	1	1	0	0	511	516	507	560	30	37	
13	1	1	0	0	512	519	509	559	30	37	
14	1	1	0	0	510	521	508	559	30	37	
15	1	1	0	0	510	516	509	560	30	37	
0	1	1	0	0	507	511	510	560	30	37	
1	1	1	0	0	510	503	508	559	30	37	
2	1	1	0	0	508	506	512	559	30	37	
3	1	1	0	0	510	509	510	560	30	37	
4	1	1	0	0	511	512	510	561	30	37	
5	1	1	0	0	511	515	508	561	30	37	
6	1	1	0	0	509	518	508	560	30	37	
7	1	1	0	0	510	517	509	561	30	37	
8	1	1	0	0	509	516	511	561	30	37	
9	1	1	0	0	509	515	510	560	30	37	
10	1	1	0	0	511	512	508	561	29	37	
11	1	1	0	0	512	513	508	561	29	37	
12	1	1	0	0	511	516	509	561	29	37	
13	1	1	0	0	510	519	508	561	29	37	
14	1	1	0	0	509	519	510	562	29	37	
15	1	1	0	0	508	518	507	563	29	37	
0	1	1	0	0	512	516	508	562	29	37	
1	1	1	0	0	509	521	507	561	29	37	
2	1	1	0	0	509	526	504	562	29	37	
3	1	1	0	0	510	523	508	561	29	37	
4	1	1	0	0	508	498	507	561	29	37	
5	1	1	0	0	511	481	507	561	29	37	
6	1	1	0	0	509	471	510	562	29	37	
7	1	1	0	0	511	491	508	562	29	37	
8	1	1	0	0	510	505	508	562	29	37	
9	1	1	0	0	506	509	508	562	29	37	
10	1	1	0	0	508	496	511	562	29	37	
11	1	1	0	0	509	508	510	562	29	37	
12	1	1	0	0	509	523	512	563	29	37	
13	1	1	0	0	508	526	512	561	29	37	
14	1	1	0	0	511	526	508	561	29	37	
15	1	1	0	0	510	528	509	561	29	37	
0	1	1	0	0	510	504	509	561	29	37	
1	1	1	0	0	510	502	509	562	29	37	
2	1	1	0	0	511	514	509	562	29	37	
3	1	1	0	0	508	520	509	562	29	37	
4	1	1	0	0	509	524	509	561	29	37	
5	1	1	0	0	509	523	508	562	29	37	
6	1	1	0	0	511	519	508	562	29	37	
7	1	1	0	0	512	518	508	562	29	37	
8	1	1	0	0	511	517	509	561	29	37	
9	1	1	0	0	511	520	509	560	29	37	
10	1	1	0	0	509	519	509	561	29	37	
11	1	1	0	0	511	518	508	561	29	37	
12	1	1	0	0	511	519	511	561	29	37	
13	1	1	0	0	511	523	509	561	29	37	
14	1	1	0	0	510	524	512	561	29	37	
15	1	1	0	0	511	513	508	561	29	37	
0	1	1	0	0	511	507	510	562	29	37	
1	1	1	0	0	510	512	508	562	29	37	
2	1	1	0	0	509	509	508	562	29	37	
3	1	1	0	0	509	526	511	561	29	37	
4	1	1	0	0	508	544	510	561	29	37	
5	1	1	0	0	509	531	508	561	29	37	
6	1	1	0	0	510	483	507	561	29	37	
7	1	1	0	0	511	435	507	562	29	37	
8	1	1	0	0	508	462	508	562	29	37	
9	1	1	0	0	509	504	511	562	29	37	
10	1	1	0	0	508	519	510	563	29	37	
11	1	1	0	0	508	523	511	562	29	37	
12	1	1	0	0	508	524	508	563	29	37	
13	1	1	0	0	510	526	508	563	29	37	
14	1	1	0	0	510	525	510	562	29	37	
15	1	1	0	0	511	527	510	562	29	37	
0	1	1	0	0	511	530	510	562	29	37	
1	1	1	0	0	511	537	508	563	29	37	
2	1	1	0	0	511	521	508	563	29	37	
3	1	1	0	0	509	503	510	564	29	37	
4	1	1	0	0	511	498	508	564	29	37	
5	1	1	0	0	511	510	507	564	29	37	
6	1	1	0	0	509	509	510	564	29	37	
7	1	1	0	0	511	510	508	564	29	37	
8	1	1	0	0	511	515	508	563	29	37	
9	1	1	0	0	509	510	510	564	29	37	
10	1	1	0	0	508	507	509	564	29	37	
11	1	1	0	0	506	511	509	564	29	37	
12	1	1	0	0	510	514	508	564	29	37	
13	1	1	0	0	511	513	509	564	29	37	
14	1	1	0	0	511	503	510	565	29	37	
15	1	1	0	0	510	508	510	565	29	37	
0	1	1	0	0	510	510	508	565	29	37	
1	1	1	0	0	511	513	509	566	29	37	
2	1	1	0	0	508	522	509	564	29	37	
3	1	1	0	0	510	519	509	565	29	37	
4	1	1	0	0	509	516	511	565	29	37	
5	1	1	0	0	508	517	511	564	29	37	
6	1	1	0	0	511	516	511	565	29	37	
7	1	1	0	0	509	514	511	565	29	37	
8	1	1	0	0	511	513	509	565	29	37	
9	1	1	0	0	510	516	512	565	29	37	
10	1	1	0	0	509	517	509	565	29	37	
11	1	1	0	0	511	517	512	566	29	37	
12	1	1	0	0	512	520	511	566	29	37	
13	1	1	0	0	509	520	509	564	29	37	
14	1	1	0	0	510	519	511	563	29	37	
15	1	1	0	0	510	516	511	564	29	37	
0	1	1	0	0	510	517	510	563	29	37	
1	1	1	0	0	509	516	507	563	29	37	
2	1	1	0	0	510	507	508	564	29	37	
3	1	1	0	0	508	491	509	564	29	37	
4	1	1	0	0	511	492	510	564	29	37	
5	1	1	0	0	510	496	508	564	29	37	
6	1	1	0	0	508	511	507	564	29	37	
7	1	1	0	0	508	526	509	565	29	37	
8	1	1	0	0	509	535	511	564	29	37	
9	1	1	0	0	510	533	510	564	29	37	
10	1	1	0	0	510	527	510	564	29	37	
11	1	1	0	0	509	520	509	563	29	37	
12	1	1	0	0	509	514	509	563	29	37	
13	1	1	0	0	510	505	509	564	29	37	
14	1	1	0	0	511	492	509	563	29	37	
15	1	1	0	0	510	487	506	563	29	37	
0	1	1	0	0	511	473	508	564	29	37	
1	1	1	0	0	509	499	506	564	29	37	
2	1	1	0	0	510	511	509	564	29	37	
3	1	1	0	0	509	512	509	564	29	37	
4	1	1	0	0	509	521	510	563	29	37	
5	1	1	0	0	508	526	509	563	29	37	
6	1	1	0	0	512	523	508	563	29	37	
7	1	1	0	0	512	520	508	563	29	37	
8	1	1	0	0	511	520	508	563	29	37	
9	1	1	0	0	511	519	507	562	29	37	
10	1	1	0	0	509	518	509	563	29	37	
11	1	1	0	0	510	519	509	563	29	37	
12	1	1	0	0	511	515	510	564	29	37	
13	1	1	0	0	510	515	511	564	29	37	
14	1	1	0	0	511	515	511	563	29	37	
15	1	1	0	0	509	515	509	564	29	37	
0	1	1	0	0	511	517	508	564	29	37	
1	1	1	0	0	508	517	508	564	30	37	
2	1	1	0	0	509	515	508	564	29	37	
3	1	1	0	0	509	516	507	564	29	37	
4	1	1	0	0	510	517	507	564	29	37	
5	1	1	0	0	512	515	508	564	29	37	
6	1	1	0	0	512	515	504	564	29	37	
7	1	1	0	0	511	514	508	564	29	37	
8	1	1	0	0	511	515	509	565	29	37	
9	1	1	0	0	509	514	510	565	29	37	
10	1	1	0	0	509	513	510	565	29	37	
11	1	1	0	0	511	504	512	565	29	37	
12	1	1	0	0	510	490	511	565	29	37	
13	1	1	0	0	510	499	508	564	29	37	
14	1	1	0	0	507	523	510	563	29	37	
15	1	1	0	0	511	532	509	563	29	37	
0	1	1	0	0	510	513	507	563	29	37	
1	1	1	0	0	511	472	508	563	29	37	
2	1	1	0	0	511	472	508	564	29	37	
3	1	1	0	0	511	513	510	564	29	37	
4	1	1	0	0	507	527	507	564	29	37	
5	1	1	0	0	509	536	509	564	29	37	
6	1	1	0	0	510	543	507	564	29	37	
7	1	1	0	0	508	531	509	563	29	37	
8	1	1	0	0	509	518	508	563	29	37	
9	1	1	0	0	508	511	508	563	29	37	
10	1	1	0	0	510	497	511	563	29	37	
11	1	1	0	0	508	508	510	562	29	37	
12	1	1	0	0	510	505	511	563	29	37	
13	1	1	0	0	509	504	508	561	29	37	
14	1	1	0	0	509	508	508	562	29	37	
15	1	1	0	0	509	513	509	562	29	37	
0	1	1	0	0	510	516	509	562	29	37	
1	1	1	0	0	510	516	510	563	30	37	
2	1	1	0	0	511	515	509	563	30	37	
3	1	1	0	0	511	516	508	562	30	37	
4	1	1	0	0	511	517	510	561	30	37	
5	1	1	0	0	511	518	509	561	30	37	
6	1	1	0	0	512	517	511	561	30	37	
7	1	1	0	0	509	518	510	560	30	37	
8	1	1	0	0	509	513	510	561	30	37	
9	1	1	0	0	509	512	511	561	30	37	
10	1	1	0	0	508	511	508	561	30	37	
11	1	1	0	0	511	514	507	561	30	37	
12	1	1	0	0	509	513	509	561	30	37	
13	1	1	0	0	509	513	508	561	30	37	
14	1	1	0	0	511	513	511	561	30	37	
15	1	1	0	0	510	511	510	561	30	37	
0	1	1	0	0	510	515	509	560	30	37	
1	1	1	0	0	508	515	510	560	30	37	
2	1	1	0	0	511	510	508	561	30	37	
3	1	1	0	0	509	512	510	561	30	37	
4	1	1	0	0	510	510	507	561	30	37	
5	1	1	0	0	510	511	507	561	30	37	
6	1	1	0	0	510	512	509	561	30	37	
7	1	1	0	0	509	511	509	562	30	37	
8	1	1	0	0	509	512	507	563	30	37	
9	1	1	0	0	510	513	509	563	30	37	
10	1	1	0	0	511	511	511	563	30	37	
11	1	1	0	0	510	512	511	563	30	37	
12	1	1	0	0	512	513	510	563	30	37	
13	1	1	0	0	512	514	512	563	30	37	
14	1	1	0	0	511	516	509	563	30	37	
15	1	1	0	0	510	512	508	564	30	37	
0	1	1	0	0	510	515	508	563	30	37	
1	1	1	0	0	511	514	507	563	30	37	
2	1	1	0	0	509	515	508	564	30	37	
3	1	1	0	0	509	516	506	564	30	37	
4	1	1	0	0	506	513	509	565	30	37	
5	1	1	0	0	509	515	510	564	30	37	
6	1	1	0	0	508	513	510	564	30	37	
7	1	1	0	0	512	514	510	564	30	37	
8	1	1	0	0	510	513	511	563	30	37	
9	1	1	0	0	512	513	510	563	30	37	
10	1	1	0	0	511	513	511	564	30	37	
11	1	1	0	0	511	514	512	563	30	37	
12	1	1	0	0	511	511	510	564	30	37	
13	1	1	0	0	511	511	510	564	30	37	
14	1	1	0	0	510	509	508	564	30	37	
15	1	1	0	0	510	510	509	564	30	37	
0	1	1	0	0	509	511	505	564	30	37	
1	1	1	0	0	509	513	507	563	30	37	
2	1	1	0	0	509	513	507	563	30	37	
3	1	1	0	0	508	512	507	563	30	37	
4	1	1	0	0	510	510	507	563	30	37	
5	1	1	0	0	510	510	507	563	30	37	
6	1	1	0	0	508	511	506	562	30	37	
7	1	1	0	0	509	514	507	562	30	37	
8	1	1	0	0	508	515	509	562	30	37	
9	1	1	0	0	507	513	511	561	30	37	
10	1	1	0	0	508	514	510	563	30	37	
11	1	1	0	0	508	516	512	561	30	37	
12	1	1	0	0	509	516	510	562	30	37	
13	1	1	0	0	510	518	511	561	30	37	
14	1	1	0	0	511	518	511	561	30	37	
15	1	1	0	0	510	514	511	560	30	37	
0	1	1	0	0	511	513	509	560	30	37	
1	1	1	0	0	510	514	509	560	30	37	
2	1	1	0	0	510	512	508	560	30	37	
3	1	1	0	0	511	511	508	560	30	37	
4	1	1	0	0	510	509	508	561	30	37	
5	1	1	0	0	509	511	510	560	30	37	
6	1	1	0	0	510	510	512	560	30	37	
7	1	1	0	0	511	510	508	561	30	37	
8	1	1	0	0	512	511	505	560	30	37	
9	1	1	0	0	509	510	507	561	30	37	
10	1	1	0	0	511	512	507	560	30	37	
11	1	1	0	0	509	514	504	560	30	37	
12	1	1	0	0	510	511	508	560	30	37	
13	1	1	0	0	509	510	508	560	30	37	
14	1	1	0	0	510	506	510	560	30	37	
15	1	1	0	0	509	494	510	559	30	37	
0	1	1	0	0	508	513	510	560	30	37	
1	1	1	0	0	510	519	512	560	30	37	
2	1	1	0	0	511	518	513	561	30	37	
3	1	1	0	0	511	523	510	561	30	37	
4	1	1	0	0	511	533	511	560	30	37	
5	1	1	0	0	511	534	510	560	30	37	
6	1	1	0	0	510	525	510	560	30	37	
7	1	1	0	0	511	514	510	560	30	37	
8	1	1	0	0	511	509	510	560	30	37	
9	1	1	0	0	511	512	508	560	31	37	
10	1	1	0	0	510	512	507	560	30	37	
11	1	1	0	0	508	512	508	560	31	37	
12	1	1	0	0	509	511	507	559	31	37	
13	1	1	0	0	511	504	506	560	31	37	
14	1	1	0	0	509	503	510	559	31	37	
15	1	1	0	0	509	495	509	560	31	37	
0	1	1	0	0	510	500	509	560	31	37	
1	1	1	0	0	508	507	507	560	31	37	
2	1	1	0	0	507	504	511	560	31	37	
3	1	1	0	0	508	509	510	559	31	37	
4	1	1	0	0	510	505	507	559	31	37	
5	1	1	0	0	511	516	508	559	31	37	
6	1	1	0	0	510	522	509	559	31	37	
7	1	1	0	0	510	524	508	559	31	37	
8	1	1	0	0	507	521	509	559	31	37	
9	1	1	0	0	508	520	508	560	31	37	
10	1	1	0	0	509	521	509	560	31	37	
11	1	1	0	0	510	520	509	560	31	37	
12	1	1	0	0	512	516	508	560	32	37	
13	1	1	0	0	510	515	511	559	32	38	
14	1	1	0	0	510	511	510	559	32	37	
15	1	1	0	0	511	512	510	560	32	38	
0	1	1	0	0	512	512	510	560	32	38	
1	1	1	0	0	511	513	509	561	32	38	
2	1	1	0	0	509	512	508	561	32	38	
3	1	1	0	0	510	511	508	561	32	38	
4	1	1	0	0	509	512	509	561	32	38	
5	1	1	0	0	509	509	510	561	32	38	
6	1	1	0	0	513	513	510	562	32	38	
7	1	1	0	0	510	512	511	562	32	38	
8	1	1	0	0	510	510	514	561	32	38	
9	1	1	0	0	510	512	515	561	32	38	
10	1	1	0	0	510	512	514	561	32	38	
11	1	1	0	0	511	517	514	562	32	38	
12	1	1	0	0	510	517	511	561	32	38	
13	1	1	0	0	508	513	505	561	32	38	
14	1	1	0	0	508	512	500	561	33	38	
15	1	1	0	0	507	510	499	562	33	38	
0	1	1	0	0	510	512	503	563	33	38	
1	1	1	0	0	510	511	496	562	33	38	
2	1	1	0	0	511	513	502	562	33	38	
3	1	1	0	0	508	512	506	561	33	38	
4	1	1	0	0	509	514	508	561	33	38	
5	1	1	0	0	508	514	508	562	33	38	
6	1	1	0	0	510	511	511	562	33	38	
7	1	1	0	0	512	511	511	562	33	38	
8	1	1	0	0	512	512	513	562	33	38	
9	1	1	0	0	511	514	513	563	33	38	
10	1	1	0	0	510	513	510	563	33	38	
11	1	1	0	0	508	511	508	563	33	38	
12	1	1	0	0	510	512	510	563	33	38	
13	1	1	0	0	510	511	508	562	33	38	
14	1	1	0	0	505	507	509	563	33	38	
15	1	1	0	0	507	508	509	562	33	38	
0	1	1	0	0	513	520	513	562	33	38	
1	1	1	0	0	517	527	513	562	33	38	
2	1	1	0	0	509	518	515	562	33	38	
3	1	1	0	0	504	516	512	562	33	38	
4	1	1	0	0	504	513	509	563	33	38	
5	1	1	0	0	508	511	508	562	33	38	
6	1	1	0	0	510	512	506	563	33	38	
7	1	1	0	0	509	511	507	562	33	38	
8	1	1	0	0	508	508	508	562	33	38	
9	1	1	0	0	507	510	510	562	33	38	
10	1	1	0	0	503	510	512	562	33	38	
11	1	1	0	0	510	514	513	561	33	38	
12	1	1	0	0	525	521	513	561	33	38	
13	1	1	0	0	519	518	513	561	33	38	
14	1	1	0	0	517	516	512	561	33	37	
15	1	1	0	0	510	514	512	561	33	37	
0	1	1	0	0	497	507	507	561	33	37	
1	1	1	0	0	496	507	502	561	33	37	
2	1	1	0	0	512	506	502	561	33	37	
3	1	1	0	0	521	515	504	562	33	37	
4	1	1	0	0	506	504	502	561	34	37	
5	1	1	0	0	505	506	504	563	34	37	
6	1	1	0	0	510	510	505	562	34	37	
7	1	1	0	0	515	512	508	563	34	37	
8	1	1	0	0	515	512	508	563	34	37	
9	1	1	0	0	514	511	508	563	34	37	
10	1	1	0	0	514	510	512	564	34	37	
11	1	1	0	0	508	519	508	564	34	37	
12	1	1	0	0	503	519	507	564	35	37	
13	1	1	0	0	507	515	512	564	35	37	
14	1	1	0	0	507	507	500	564	35	37	
15	1	1	0	0	496	504	496	564	35	37	
0	1	1	0	0	506	514	508	563	35	37	
1	1	1	0	0	519	513	522	563	35	37	
2	1	1	0	0	519	510	529	564	35	37	
3	1	1	0	0	510	522	531	563	35	37	
4	1	1	0	0	511	522	522	563	35	37	
5	1	1	0	0	517	525	520	562	35	37	
6	1	1	0	0	504	517	521	560	35	37	
7	1	1	0	0	497	508	508	560	35	37	
8	1	1	0	0	519	516	497	558	35	37	
9	1	1	0	0	529	501	489	558	35	37	
10	1	1	0	0	514	496	492	556	35	37	
11	1	1	0	0	514	503	498	554	35	37	
12	1	1	0	0	514	515	503	552	35	37	
13	1	1	0	0	510	513	506	551	35	37	
14	1	1	0	0	514	519	509	550	35	37	
15	1	1	0	0	508	514	508	549	35	37	
0	1	1	0	0	504	510	507	548	34	37	
1	1	1	0	0	508	511	505	547	34	37	
2	1	1	0	0	508	511	511	546	34	37	
3	1	1	0	0	506	515	518	544	34	37	
4	1	1	0	0	500	521	519	544	34	37	
5	1	1	0	0	507	526	510	542	34	37	
6	1	1	0	0	524	523	506	540	34	37	
7	1	1	0	0	513	504	514	539	34	37	
8	1	1	0	0	502	504	518	538	34	37	
9	1	1	0	0	498	519	524	537	34	37	
10	1	1	0	0	501	524	523	537	33	37	
11	1	1	0	0	526	534	518	536	33	37	
12	1	1	0	0	538	537	511	535	33	37	
13	1	1	0	0	515	505	504	535	33	37	
14	1	1	0	0	495	491	508	533	33	37	
15	1	1	0	0	518	514	515	532	33	37	
0	1	1	0	0	532	524	514	532	33	36	
1	1	1	0	0	505	495	497	530	33	36	
2	1	1	0	0	502	485	489	531	33	36	
3	1	1	0	0	512	504	492	531	33	36	
4	1	1	0	0	519	510	503	531	33	36	
5	1	1	0	0	518	504	508	531	33	35	
6	1	1	0	0	520	508	509	531	33	35	
7	1	1	0	0	520	521	511	531	33	35	
8	1	1	0	0	513	526	515	531	33	35	
9	1	1	0	0	510	524	511	531	33	35	
10	1	1	0	0	504	521	512	531	33	35	
11	1	1	0	0	522	535	512	531	33	35	
12	1	1	0	0	525	535	506	530	33	35	
13	1	1	0	0	491	507	505	531	33	35	
14	1	1	0	0	485	485	500	530	33	34	
15	1	1	0	0	499	505	502	530	33	34	
0	1	1	0	0	512	518	506	530	33	34	
1	1	1	0	0	515	526	522	529	33	34	
2	1	1	0	0	512	527	519	529	33	34	
3	1	1	0	0	524	522	507	528	33	34	
4	1	1	0	0	526	524	506	528	33	34	
5	1	1	0	0	509	524	511	527	33	34	
6	1	1	0	0	512	508	509	527	33	34	
7	1	1	0	0	506	513	511	527	33	34	
8	1	1	0	0	498	507	513	526	33	34	
9	1	1	0	0	508	511	518	527	33	34	
10	1	1	0	0	504	506	517	526	33	34	
11	1	1	0	0	500	505	523	526	33	34	
12	1	1	0	0	510	513	537	526	34	34	
13	1	1	0	0	502	518	529	526	34	34	
14	1	1	0	0	500	517	520	525	34	34	
15	1	1	0	0	500	516	519	524	34	34	
0	1	1	0	0	503	520	504	523	34	34	
1	1	1	0	0	503	519	482	522	34	35	
2	1	1	0	0	510	516	496	521	34	35	
3	1	1	0	0	504	519	480	521	34	35	
4	1	1	0	0	489	513	461	519	34	35	
5	1	1	0	0	515	522	471	518	34	35	
6	1	1	0	0	505	518	482	516	34	35	
7	1	1	0	0	489	506	508	515	34	35	
8	1	1	0	0	480	500	520	515	33	35	
9	1	1	0	0	484	514	520	513	33	36	
10	1	1	0	0	519	534	519	512	33	36	
11	1	1	0	0	512	511	527	510	33	36	
12	1	1	0	0	485	492	524	509	33	36	
13	1	1	0	0	496	499	509	508	33	36	
14	1	1	0	0	507	502	507	507	33	36	
15	1	1	0	0	505	508	515	507	33	37	
0	1	1	0	0	500	504	518	505	33	37	
1	1	1	0	0	509	498	515	505	33	37	
2	1	1	0	0	496	502	523	504	33	37	
3	1	1	0	0	512	524	520	503	33	37	
4	1	1	0	0	508	519	513	502	33	37	
5	1	1	0	0	504	520	512	502	33	37	
6	1	1	0	0	510	515	507	500	33	37	
7	1	1	0	0	513	512	508	500	33	38	
8	1	1	0	0	516	508	510	500	32	38	
9	1	1	0	0	518	508	512	499	32	38	
10	1	1	0	0	518	514	512	499	32	38	
11	1	1	0	0	518	516	510	497	32	38	
12	1	1	0	0	515	515	510	497	32	38	
13	1	1	0	0	524	515	508	496	32	38	
14	1	1	0	0	519	513	509	496	32	38	
15	1	1	0	0	514	511	506	496	31	38	
0	1	1	0	0	503	503	502	495	31	38	
1	1	1	0	0	521	523	509	496	31	39	
2	1	1	0	0	553	541	514	496	31	39	
3	1	1	0	0	503	496	511	496	30	39	
4	1	1	0	0	505	500	510	497	30	39	
5	1	1	0	0	529	516	509	498	30	39	
6	1	1	0	0	519	508	506	499	30	39	
7	1	1	0	0	516	508	511	501	30	39	
8	1	1	0	0	521	519	511	503	29	39	
9	1	1	0	0	519	511	510	504	29	39	
10	1	1	0	0	535	523	512	506	29	40	
11	1	1	0	0	527	515	513	507	29	40	
12	1	1	0	0	529	513	517	510	28	40	
13	1	1	0	0	536	516	509	512	28	40	
14	1	1	0	0	546	512	499	515	28	40	
15	1	1	0	0	552	515	507	517	28	40	
0	1	1	0	0	565	518	511	519	27	40	
1	1	1	0	0	575	516	513	521	27	40	
2	1	1	0	0	590	517	512	523	27	40	
3	1	1	0	0	598	515	508	527	27	41	
4	1	1	0	0	624	515	508	528	26	41	
5	1	1	0	0	626	512	507	530	26	41	
6	1	1	0	0	602	515	508	531	26	41	
7	1	1	0	0	577	513	508	534	26	41	
8	1	1	0	0	562	513	510	536	25	42	
9	1	1	0	0	532	513	507	541	25	42	
10	1	1	0	0	531	515	506	544	25	42	
11	1	1	0	0	515	511	504	545	25	42	
12	1	1	0	0	492	511	502	548	24	42	
13	1	1	0	0	465	511	502	551	24	42	
14	1	1	0	0	451	510	503	555	24	42	
15	1	1	0	0	439	511	499	557	24	42	
0	1	1	0	0	429	513	498	560	24	42	
1	1	1	0	0	419	512	499	562	23	42	
2	1	1	0	0	420	512	501	566	23	42	
3	1	1	0	0	418	510	505	568	23	42	
4	1	1	0	0	416	507	524	572	22	43	
5	1	1	0	0	419	510	528	575	22	43	
6	1	1	0	0	430	508	509	579	22	43	
7	1	1	0	0	456	507	506	581	22	43	
8	1	1	0	0	449	508	513	583	21	43	
9	1	1	0	0	450	510	508	585	21	43	
10	1	1	0	0	456	510	499	586	21	43	
11	1	1	0	0	457	510	505	588	20	43	
12	1	1	0	0	458	510	513	587	20	43	
13	1	1	0	0	460	510	513	588	19	42	
14	1	1	0	0	471	510	509	589	19	42	
15	1	1	0	0	476	511	504	589	18	42	
0	1	1	0	0	480	508	502	589	18	42	
1	1	1	0	0	485	511	501	588	17	41	
2	1	1	0	0	489	513	507	588	17	41	
3	1	1	0	0	490	513	509	588	16	41	
4	1	1	0	0	494	514	508	585	16	41	
5	1	1	0	0	496	512	507	585	15	41	
6	1	1	0	0	502	513	510	583	15	41	
7	1	1	0	0	508	515	505	582	14	40	
8	1	1	0	0	512	515	503	581	14	40	
9	1	1	0	0	514	517	508	579	14	40	
10	1	1	0	0	515	518	507	578	14	40	
11	1	1	0	0	521	516	505	577	14	40	
12	1	1	0	0	526	517	504	576	14	40	
13	1	1	0	0	529	517	507	575	14	40	
14	1	1	0	0	528	518	511	574	14	40	
15	1	1	0	0	531	517	511	572	14	40	
0	1	1	0	0	532	514	510	571	14	40	
1	1	1	0	0	528	516	509	570	15	40	
2	1	1	0	0	527	515	511	569	15	41	
3	1	1	0	0	519	510	508	568	15	41	
4	1	1	0	0	517	509	507	568	16	41	
5	1	1	0	0	515	515	512	567	16	41	
6	1	1	0	0	516	515	515	567	16	41	
7	1	1	0	0	517	517	517	568	17	41	
8	1	1	0	0	517	517	521	568	17	41	
9	1	1	0	0	519	518	520	568	18	41	
10	1	1	0	0	526	516	512	568	18	42	
11	1	1	0	0	531	515	507	569	18	42	
12	1	1	0	0	534	528	505	570	19	42	
13	1	1	0	0	524	538	511	571	19	42	
14	1	1	0	0	519	539	521	572	20	42	
15	1	1	0	0	519	535	530	573	20	42	
0	1	1	0	0	509	526	527	574	21	42	
1	1	1	0	0	500	517	519	575	21	42	
2	1	1	0	0	488	509	520	575	21	42	
3	1	1	0	0	476	494	512	577	22	42	
4	1	1	0	0	479	497	505	577	22	42	
5	1	1	0	0	483	512	503	577	23	42	
6	1	1	0	0	474	506	495	578	23	42	
7	1	1	0	0	452	498	492	577	24	42	
8	1	1	0	0	450	488	498	577	24	42	
9	1	1	0	0	441	479	499	576	24	42	
10	1	1	0	0	441	473	480	576	25	42	
11	1	1	0	0	456	485	478	576	25	42	
12	1	1	0	0	473	487	478	576	26	42	
13	1	1	0	0	488	492	477	575	26	42	
14	1	1	0	0	508	499	475	575	27	42	
15	1	1	0	0	527	507	478	575	27	43	
0	1	1	0	0	536	522	495	574	28	43	
1	1	1	0	0	543	526	511	574	28	43	
2	1	1	0	0	553	534	524	574	28	43	
3	1	1	0	0	549	547	532	574	29	43	
4	1	1	0	0	554	561	527	574	29	43	
5	1	1	0	0	576	563	524	575	30	43	
6	1	1	0	0	604	573	530	575	30	44	
7	1	1	0	0	609	578	532	576	31	44	
8	1	1	0	0	594	543	535	578	31	44	
9	1	1	0	0	593	478	536	580	32	45	
10	1	1	0	0	583	446	536	581	32	45	
11	1	1	0	0	591	483	530	583	32	45	
12	1	1	0	0	552	490	519	585	33	46	
13	1	1	0	0	526	480	508	587	33	46	
14	1	1	0	0	506	464	487	589	34	47	
15	1	1	0	0	449	469	473	592	34	47	
0	1	1	0	0	447	502	476	594	34	48	
1	1	1	0	0	490	527	474	596	35	48	
2	1	1	0	0	510	545	474	599	35	49	
3	1	1	0	0	515	574	497	600	35	49	
4	1	1	0	0	515	586	511	601	36	50	
5	1	1	0	0	518	577	520	601	36	50	
6	1	1	0	0	522	527	519	601	36	50	
7	1	1	0	0	528	447	510	601	37	51	
8	1	1	0	0	529	430	511	600	37	51	
9	1	1	0	0	536	363	521	600	38	51	
10	1	1	0	0	537	330	529	599	38	51	
11	1	1	0	0	529	422	527	597	39	51	
12	1	1	0	0	519	550	526	595	39	51	
13	1	1	0	0	514	549	523	592	40	52	
14	1	1	0	0	514	563	521	590	40	52	
15	1	1	0	0	517	567	515	587	41	52	
0	1	1	0	0	515	585	511	583	41	52	
1	1	1	0	0	513	613	511	579	42	52	
2	1	1	0	0	515	595	492	576	42	52	
3	1	1	0	0	515	560	495	572	43	52	
4	1	1	0	0	517	541	504	568	43	52	
5	1	1	0	0	515	525	510	565	44	51	
6	1	1	0	0	512	521	507	561	44	51	
7	1	1	0	0	505	511	519	558	44	51	
8	1	1	0	0	502	513	524	554	45	50	
9	1	1	0	0	497	522	533	551	45	50	
10	1	1	0	0	495	497	503	549	45	49	
11	1	1	0	0	496	481	508	546	46	49	
12	1	1	0	0	493	495	515	543	46	48	
13	1	1	0	0	500	515	500	540	46	47	
14	1	1	0	0	508	514	490	536	46	46	
15	1	1	0	0	507	514	499	534	46	46	
0	1	1	0	0	513	511	513	531	46	45	
1	1	1	0	0	522	514	520	529	46	44	
2	1	1	0	0	539	512	509	527	46	44	
3	1	1	0	0	547	508	523	524	46	43	
4	1	1	0	0	562	518	519	523	46	43	
5	1	1	0	0	573	517	517	521	46	42	
6	1	1	0	0	553	515	518	519	45	42	
7	1	1	0	0	556	513	504	518	45	41	
8	1	1	0	0	560	517	502	518	45	41	
9	1	1	0	0	551	533	498	518	45	41	
10	1	1	0	0	542	530	499	519	45	40	
11	1	1	0	0	542	528	516	519	44	40	
12	1	1	0	0	529	524	494	521	44	39	
13	1	1	0	0	492	515	481	520	44	39	
14	1	1	0	0	473	518	498	520	43	39	
15	1	1	0	0	462	520	488	519	43	38	
0	1	1	0	0	452	522	481	518	42	38	
1	1	1	0	0	446	527	497	517	42	38	
2	1	1	0	0	443	534	502	515	41	37	
3	1	1	0	0	448	544	508	512	40	37	
4	1	1	0	0	446	549	516	512	39	36	
5	1	1	0	0	450	562	519	512	38	35	
6	1	1	0	0	454	581	513	514	37	34	
7	1	1	0	0	459	593	516	517	37	33	
8	1	1	0	0	462	585	515	521	36	32	
9	1	1	0	0	469	576	518	526	36	31	
10	1	1	0	0	476	565	516	530	36	29	
11	1	1	0	0	482	555	513	534	37	28	
12	1	1	0	0	484	536	513	537	37	27	
13	1	1	0	0	485	517	512	540	37	25	
14	1	1	0	0	486	496	513	542	37	24	
15	1	1	0	0	492	480	512	543	38	24	
0	1	1	0	0	494	465	515	547	38	23	
1	1	1	0	0	499	455	511	551	38	23	
2	1	1	0	0	497	444	511	558	37	22	
3	1	1	0	0	496	434	508	567	36	22	
4	1	1	0	0	500	429	512	575	35	21	
5	1	1	0	0	507	428	513	587	34	21	
6	1	1	0	0	508	421	514	598	33	20	
7	1	1	0	0	511	411	513	609	33	20	
8	1	1	0	0	514	410	515	616	33	20	
9	1	1	0	0	517	423	516	624	33	20	
10	1	1	0	0	524	442	516	629	34	21	
11	1	1	0	0	527	455	514	631	35	21	
12	1	1	0	0	527	462	513	633	35	22	
13	1	1	0	0	532	469	511	634	36	23	
14	1	1	0	0	532	475	509	636	37	24	
15	1	1	0	0	532	486	508	638	38	25	
0	1	1	0	0	529	502	506	637	38	25	
1	1	1	0	0	524	509	505	636	38	26	
2	1	1	0	0	523	514	506	634	38	27	
3	1	1	0	0	524	515	506	631	38	28	
4	1	1	0	0	520	521	504	627	37	29	
5	1	1	0	0	520	527	507	622	36	30	
6	1	1	0	0	522	534	505	619	34	31	
7	1	1	0	0	523	535	505	615	33	33	
8	1	1	0	0	521	530	505	613	31	35	
9	1	1	0	0	522	528	504	613	29	36	
10	1	1	0	0	523	532	506	614	28	38	
11	1	1	0	0	523	536	505	615	27	39	
12	1	1	0	0	527	535	510	617	26	41	
13	1	1	0	0	530	527	511	620	25	42	
14	1	1	0	0	529	526	508	625	25	43	
15	1	1	0	0	529	527	505	628	25	43	
0	1	1	0	0	532	528	503	632	25	44	
1	1	1	0	0	534	527	504	636	25	45	
2	1	1	0	0	534	522	507	639	25	45	
3	1	1	0	0	537	519	509	642	25	46	
4	1	1	0	0	529	519	511	642	25	46	
5	1	1	0	0	525	520	514	641	25	47	
6	1	1	0	0	520	527	515	637	25	48	
7	1	1	0	0	511	528	514	632	25	49	
8	1	1	0	0	508	526	513	627	25	49	
9	1	1	0	0	507	527	515	619	25	50	
10	1	1	0	0	502	530	513	611	25	51	
11	1	1	0	0	497	526	512	602	24	52	
12	1	1	0	0	490	519	514	592	24	52	
13	1	1	0	0	491	516	514	583	24	53	
14	1	1	0	0	500	516	516	573	24	53	
15	1	1	0	0	510	511	513	562	24	53	
0	1	1	0	0	493	510	514	552	24	53	
1	1	1	0	0	483	515	519	542	24	53	
2	1	1	0	0	486	533	539	532	25	52	
3	1	1	0	0	492	545	546	523	25	51	
4	1	1	0	0	494	534	531	514	26	51	
5	1	1	0	0	496	525	512	507	27	50	
6	1	1	0	0	502	512	492	499	27	49	
7	1	1	0	0	511	502	486	493	28	48	
8	1	1	0	0	504	497	490	488	28	47	
9	1	1	0	0	495	499	495	485	29	46	
10	1	1	0	0	500	506	500	483	30	45	
11	1	1	0	0	503	509	510	482	30	45	
12	1	1	0	0	516	522	514	482	31	44	
13	1	1	0	0	515	530	507	483	31	43	
14	1	1	0	0	506	526	503	485	32	42	
15	1	1	0	0	508	525	500	488	32	42	
0	1	1	0	0	505	522	497	491	33	41	
1	1	1	0	0	508	518	496	496	33	41	
2	1	1	0	0	512	510	500	499	34	40	
3	1	1	0	0	514	510	504	504	34	40	
4	1	1	0	0	533	519	505	509	35	39	
5	1	1	0	0	524	519	506	514	35	39	
6	1	1	0	0	502	508	504	520	35	38	
7	1	1	0	0	508	512	516	525	36	38	
8	1	1	0	0	524	525	526	530	36	38	
9	1	1	0	0	527	527	528	534	36	37	
10	1	1	0	0	506	519	516	538	37	37	
11	1	1	0	0	515	515	508	543	37	37	
12	1	1	0	0	521	512	496	546	37	36	
13	1	1	0	0	504	502	485	548	38	36	
14	1	1	0	0	496	492	484	551	38	36	
15	1	1	0	0	495	497	496	555	38	36	
0	1	1	0	0	511	492	496	558	38	36	
1	1	1	0	0	516	497	500	560	39	36	
2	1	1	0	0	515	513	511	561	39	36	
3	1	1	0	0	509	512	513	562	39	36	
4	1	1	0	0	506	518	522	562	39	36	
5	1	1	0	0	508	527	528	563	39	36	
6	1	1	0	0	516	529	526	562	39	36	
7	1	1	0	0	524	531	520	562	39	36	
8	1	1	0	0	523	527	511	560	39	36	
9	1	1	0	0	508	514	509	558	39	36	
10	1	1	0	0	505	510	509	558	38	36	
11	1	1	0	0	505	511	509	556	38	36	
12	1	1	0	0	496	506	507	554	38	36	
13	1	1	0	0	507	510	514	552	38	36	
14	1	1	0	0	513	510	511	550	38	36	
15	1	1	0	0	506	524	520	548	38	36	
0	1	1	0	0	510	534	512	545	37	37	
1	1	1	0	0	521	523	504	544	37	37	
2	1	1	0	0	520	511	513	541	37	37	
3	1	1	0	0	512	501	512	539	37	37	
4	1	1	0	0	516	500	511	539	36	37	
5	1	1	0	0	513	500	507	536	36	37	
6	1	1	0	0	512	511	511	534	36	36	
7	1	1	0	0	524	526	513	534	36	36	
8	1	1	0	0	539	522	510	532	36	36	
9	1	1	0	0	505	497	492	531	36	36	
10	1	1	0	0	494	485	483	530	35	36	
11	1	1	0	0	504	494	492	529	35	36	
12	1	1	0	0	505	505	502	527	35	35	
13	1	1	0	0	504	510	510	526	35	35	
14	1	1	0	0	504	511	510	526	35	35	
15	1	1	0	0	513	524	511	526	35	34	
0	1	1	0	0	517	524	512	527	35	34	
1	1	1	0	0	523	524	517	528	35	33	
2	1	1	0	0	523	515	516	531	35	33	
3	1	1	0	0	513	519	519	533	35	33	
4	1	1	0	0	535	531	518	533	36	33	
5	1	1	0	0	529	524	511	532	36	33	
6	1	1	0	0	504	504	510	531	36	34	
7	1	1	0	0	531	515	513	528	36	34	
8	1	1	0	0	521	520	515	527	36	35	
9	1	1	0	0	496	512	523	525	36	35	
10	1	1	0	0	501	518	518	525	36	35	
11	1	1	0	0	497	517	506	524	35	35	
12	1	1	0	0	494	518	496	523	35	35	
13	1	1	0	0	505	509	494	523	34	35	
14	1	1	0	0	509	498	501	520	34	35	
15	1	1	0	0	511	504	508	518	33	34	
0	1	1	0	0	524	524	512	514	33	34	
1	1	1	0	0	516	509	515	509	32	34	
2	1	1	0	0	515	513	515	504	32	34	
3	1	1	0	0	516	509	510	499	32	34	
4	1	1	0	0	525	510	508	495	32	33	
5	1	1	0	0	527	517	513	493	32	33	
6	1	1	0	0	520	519	516	489	32	33	
7	1	1	0	0	508	520	519	488	32	33	
8	1	1	0	0	499	523	514	487	32	33	
9	1	1	0	0	533	544	520	485	32	32	
10	1	1	0	0	523	533	515	485	32	32	
11	1	1	0	0	503	497	508	483	32	32	
12	1	1	0	0	502	498	502	483	32	32	
13	1	1	0	0	515	517	502	482	32	32	
14	1	1	0	0	514	513	501	482	32	31	
15	1	1	0	0	502	504	504	481	32	31	
0	1	1	0	0	489	513	512	482	31	31	
1	1	1	0	0	498	522	517	483	31	30	
2	1	1	0	0	512	529	513	484	31	30	
3	1	1	0	0	507	524	515	485	31	30	
4	1	1	0	0	503	520	508	485	31	30	
5	1	1	0	0	505	517	502	485	31	29	
6	1	1	0	0	502	517	502	486	31	29	
7	1	1	0	0	478	509	499	487	31	29	
8	1	1	0	0	483	526	508	487	32	29	
9	1	1	0	0	488	542	514	487	32	30	
10	1	1	0	0	473	513	518	489	32	30	
11	1	1	0	0	485	515	516	490	32	30	
12	1	1	0	0	486	508	507	492	32	29	
13	1	1	0	0	492	502	503	494	32	29	
14	1	1	0	0	485	496	499	495	32	29	
15	1	1	0	0	483	497	501	497	32	29	
0	1	1	0	0	492	518	508	499	32	29	
1	1	1	0	0	500	525	514	501	33	29	
2	1	1	0	0	482	495	514	503	33	29	
3	1	1	0	0	470	498	514	504	33	29	
4	1	1	0	0	484	532	517	504	33	30	
5	1	1	0	0	507	527	517	505	33	30	
6	1	1	0	0	477	491	508	504	33	30	
7	1	1	0	0	474	492	505	504	33	30	
8	1	1	0	0	494	500	504	504	33	31	
9	1	1	0	0	489	504	507	502	33	31	
10	1	1	0	0	482	502	507	502	33	32	
11	1	1	0	0	488	501	506	499	33	32	
12	1	1	0	0	485	504	507	498	33	33	
13	1	1	0	0	492	517	509	496	33	33	
14	1	1	0	0	499	520	509	493	33	34	
15	1	1	0	0	500	502	504	491	32	35	
0	1	1	0	0	506	496	507	487	32	35	
1	1	1	0	0	518	500	504	483	32	36	
2	1	1	0	0	519	503	504	479	32	36	
3	1	1	0	0	518	507	508	474	31	37	
4	1	1	0	0	518	512	510	470	31	38	
5	1	1	0	0	536	514	511	464	31	39	
6	1	1	0	0	535	509	512	457	30	40	
7	1	1	0	0	526	514	513	451	30	41	
8	1	1	0	0	533	514	511	443	30	42	
9	1	1	0	0	539	514	511	434	29	44	
10	1	1	0	0	540	516	515	423	28	46	
11	1	1	0	0	545	509	513	413	28	48	
12	1	1	0	0	552	519	523	403	27	50	
13	1	1	0	0	555	521	524	391	26	52	
14	1	1	0	0	560	515	524	380	25	53	
15	1	1	0	0	582	516	529	370	24	55	
0	1	1	0	0	611	522	537	361	23	55	
1	1	1	0	0	639	518	536	355	22	55	
2	1	1	0	0	668	512	536	349	22	55	
3	1	1	0	0	678	513	535	348	21	55	
4	1	1	0	0	665	527	540	349	21	55	
5	1	1	0	0	679	533	543	353	20	55	
6	1	1	0	0	608	524	549	360	20	55	
7	1	1	0	0	551	517	550	371	21	54	
8	1	1	0	0	517	529	558	384	21	53	
9	1	1	0	0	488	534	558	399	21	51	
10	1	1	0	0	480	538	538	417	22	50	
11	1	1	0	0	502	540	513	437	22	48	
12	1	1	0	0	496	542	486	457	22	47	
13	1	1	0	0	501	544	469	480	22	46	
14	1	1	0	0	508	543	456	500	22	45	
15	1	1	0	0	509	540	451	523	23	45	
0	1	1	0	0	516	533	439	547	23	44	
1	1	1	0	0	500	524	436	572	22	44	
2	1	1	0	0	485	516	445	599	22	43	
3	1	1	0	0	463	508	458	626	22	43	
4	1	1	0	0	451	501	469	653	22	42	
5	1	1	0	0	430	499	486	680	21	41	
6	1	1	0	0	414	493	492	705	20	39	
7	1	1	0	0	404	489	503	728	19	38	
8	1	1	0	0	400	488	503	748	18	36	
9	1	1	0	0	400	483	501	765	17	35	
10	1	1	0	0	400	482	506	775	16	33	
11	1	1	0	0	407	485	508	782	15	32	
12	1	1	0	0	414	486	507	783	13	32	
13	1	1	0	0	423	490	509	779	12	31	
14	1	1	0	0	429	495	509	770	11	31	
15	1	1	0	0	434	495	511	758	10	31	
0	1	1	0	0	444	497	512	740	9	31	
1	1	1	0	0	454	497	516	722	8	32	
2	1	1	0	0	462	504	517	702	7	32	
3	1	1	0	0	473	503	515	682	7	33	
4	1	1	0	0	483	505	515	663	7	33	
5	1	1	0	0	487	507	516	644	6	34	
6	1	1	0	0	499	510	515	627	7	35	
7	1	1	0	0	510	511	521	611	7	35	
8	1	1	0	0	515	513	519	596	7	36	
9	1	1	0	0	523	513	518	583	7	37	
10	1	1	0	0	517	513	520	572	8	37	
11	1	1	0	0	518	515	520	564	8	38	
12	1	1	0	0	518	517	520	556	8	38	
13	1	1	0	0	527	517	519	550	9	39	
14	1	1	0	0	534	517	508	544	9	39	
15	1	1	0	0	539	522	511	540	10	40	
0	1	1	0	0	544	522	513	536	10	40	
1	1	1	0	0	550	521	504	532	11	41	
2	1	1	0	0	559	521	504	531	12	41	
3	1	1	0	0	557	520	503	531	12	41	
4	1	1	0	0	562	516	501	531	13	42	
5	1	1	0	0	566	518	495	532	14	42	
6	1	1	0	0	561	515	495	534	15	42	
7	1	1	0	0	562	520	503	537	15	43	
8	1	1	0	0	561	530	513	542	16	43	
9	1	1	0	0	566	533	513	547	17	43	
10	1	1	0	0	567	537	511	553	18	43	
11	1	1	0	0	569	536	516	558	19	43	
12	1	1	0	0	570	534	516	564	20	43	
13	1	1	0	0	572	521	513	569	21	43	
14	1	1	0	0	571	504	499	576	22	43	
15	1	1	0	0	575	486	472	582	22	43	
0	1	1	0	0	560	486	484	588	23	43	
1	1	1	0	0	538	494	486	593	24	43	
2	1	1	0	0	525	505	487	598	24	43	
3	1	1	0	0	502	516	505	602	25	43	
4	1	1	0	0	492	525	500	606	26	43	
5	1	1	0	0	487	527	510	608	26	43	
6	1	1	0	0	481	519	515	611	27	43	
7	1	1	0	0	475	511	509	613	27	43	
8	1	1	0	0	480	505	510	615	28	43	
9	1	1	0	0	479	501	509	615	28	43	
10	1	1	0	0	472	494	508	615	28	43	
11	1	1	0	0	471	499	508	614	29	43	
12	1	1	0	0	468	502	514	613	29	43	
13	1	1	0	0	471	509	519	612	29	43	
14	1	1	0	0	472	511	519	611	29	42	
15	1	1	0	0	470	512	518	609	30	42	
0	1	1	0	0	467	518	513	607	30	42	
1	1	1	0	0	452	521	510	605	30	42	
2	1	1	0	0	436	509	502	603	30	42	
3	1	1	0	0	435	493	494	600	30	42	
4	1	1	0	0	436	494	495	597	31	42	
5	1	1	0	0	443	498	497	595	31	42	
6	1	1	0	0	452	501	506	592	31	43	
7	1	1	0	0	460	496	510	590	31	43	
8	1	1	0	0	467	506	511	588	32	43	
9	1	1	0	0	474	515	508	587	32	43	
10	1	1	0	0	485	536	508	587	32	43	
11	1	1	0	0	495	553	515	585	32	43	
12	1	1	0	0	501	555	513	585	33	43	
13	1	1	0	0	513	538	521	584	33	43	
14	1	1	0	0	522	512	526	583	33	43	
15	1	1	0	0	526	495	515	582	33	43	
0	1	1	0	0	526	483	511	583	34	44	
1	1	1	0	0	527	487	504	582	34	44	
2	1	1	0	0	529	491	499	583	34	44	
3	1	1	0	0	531	489	508	583	34	44	
4	1	1	0	0	532	496	514	584	34	44	
5	1	1	0	0	533	514	519	586	34	45	
6	1	1	0	0	532	531	515	587	34	45	
7	1	1	0	0	521	544	511	589	34	45	
8	1	1	0	0	522	533	502	590	34	46	
9	1	1	0	0	535	524	508	591	34	46	
10	1	1	0	0	540	536	516	591	34	47	
11	1	1	0	0	537	537	521	592	34	47	
12	1	1	0	0	540	516	509	593	35	47	
13	1	1	0	0	543	511	502	593	35	47	
14	1	1	0	0	539	526	515	593	35	48	
15	1	1	0	0	531	535	530	593	35	48	
0	1	1	0	0	529	500	518	591	35	48	
1	1	1	0	0	540	478	502	591	35	48	
2	1	1	0	0	548	515	515	588	35	48	
3	1	1	0	0	550	529	527	586	36	49	
4	1	1	0	0	536	534	529	583	36	49	
5	1	1	0	0	530	530	535	579	36	49	
6	1	1	0	0	532	518	518	577	37	49	
7	1	1	0	0	534	529	511	573	37	49	
8	1	1	0	0	529	535	514	569	37	49	
9	1	1	0	0	520	536	510	566	37	49	
10	1	1	0	0	521	526	494	563	38	49	
11	1	1	0	0	520	522	495	560	38	49	
12	1	1	0	0	521	527	499	557	38	48	
13	1	1	0	0	521	529	505	554	39	48	
14	1	1	0	0	518	525	509	551	39	48	
15	1	1	0	0	515	523	509	548	39	48	
0	1	1	0	0	515	527	510	545	39	47	
1	1	1	0	0	510	532	513	541	40	47	
2	1	1	0	0	509	515	502	538	40	46	
3	1	1	0	0	513	489	503	535	40	46	
4	1	1	0	0	516	475	503	531	40	45	
5	1	1	0	0	525	444	512	528	40	44	
6	1	1	0	0	533	460	510	526	40	44	
7	1	1	0	0	536	479	508	524	40	43	
8	1	1	0	0	543	510	515	523	40	43	
9	1	1	0	0	548	524	521	522	40	42	
10	1	1	0	0	560	509	512	520	40	42	
11	1	1	0	0	575	495	502	518	40	41	
12	1	1	0	0	571	523	511	516	40	41	
13	1	1	0	0	566	537	499	516	40	40	
14	1	1	0	0	556	540	493	515	40	40	
15	1	1	0	0	558	546	503	515	40	40	
0	1	1	0	0	556	531	502	515	41	40	
1	1	1	0	0	550	516	483	517	41	40	
2	1	1	0	0	548	514	482	519	41	40	
3	1	1	0	0	532	502	489	521	41	40	
4	1	1	0	0	511	487	482	523	41	40	
5	1	1	0	0	480	482	491	523	41	41	
6	1	1	0	0	448	493	519	523	40	41	
7	1	1	0	0	423	527	520	523	40	41	
8	1	1	0	0	414	540	507	522	40	41	
9	1	1	0	0	412	543	503	520	39	42	
10	1	1	0	0	409	539	509	519	38	42	
11	1	1	0	0	405	545	505	518	37	41	
12	1	1	0	0	415	540	503	515	36	41	
13	1	1	0	0	427	529	507	513	35	41	
14	1	1	0	0	436	519	504	512	34	40	
15	1	1	0	0	451	512	511	513	34	40	
0	1	1	0	0	460	516	515	512	33	39	
1	1	1	0	0	466	515	511	513	32	38	
2	1	1	0	0	476	518	515	515	32	38	
3	1	1	0	0	485	517	515	517	31	37	
4	1	1	0	0	487	514	512	519	31	36	
5	1	1	0	0	489	515	512	522	31	35	
6	1	1	0	0	490	517	511	525	31	34	
7	1	1	0	0	494	519	510	528	32	33	
8	1	1	0	0	496	518	514	532	32	33	
9	1	1	0	0	500	520	513	534	33	32	
10	1	1	0	0	502	519	516	536	33	31	
11	1	1	0	0	504	519	514	538	34	30	
12	1	1	0	0	507	514	510	539	34	30	
13	1	1	0	0	515	512	511	542	35	29	
14	1	1	0	0	519	505	510	543	35	28	
15	1	1	0	0	522	506	511	545	35	28	
0	1	1	0	0	524	504	512	549	35	27	
1	1	1	0	0	529	504	508	553	35	26	
2	1	1	0	0	527	500	511	560	35	25	
3	1	1	0	0	529	493	507	567	35	24	
4	1	1	0	0	530	479	498	577	35	23	
5	1	1	0	0	529	482	499	588	35	22	
6	1	1	0	0	531	486	510	599	36	21	
7	1	1	0	0	529	482	518	613	36	20	
8	1	1	0	0	527	480	517	625	36	20	
9	1	1	0	0	530	483	512	636	36	20	
10	1	1	0	0	529	495	505	646	37	20	
11	1	1	0	0	530	504	522	652	37	20	
12	1	1	0	0	529	496	553	658	37	21	
13	1	1	0	0	527	473	506	663	37	22	
14	1	1	0	0	533	476	504	668	38	23	
15	1	1	0	0	524	483	529	671	38	23	
0	1	1	0	0	516	481	537	674	38	24	
1	1	1	0	0	519	477	505	676	38	25	
2	1	1	0	0	520	491	510	677	38	26	
3	1	1	0	0	518	504	512	677	38	28	
4	1	1	0	0	519	514	506	676	38	29	
5	1	1	0	0	519	523	504	676	37	30	
6	1	1	0	0	519	527	507	675	37	32	
7	1	1	0	0	515	526	508	675	36	33	
8	1	1	0	0	516	523	503	677	35	35	
9	1	1	0	0	516	523	503	679	34	36	
10	1	1	0	0	514	523	505	684	33	37	
11	1	1	0	0	518	522	508	687	32	37	
12	1	1	0	0	520	521	503	691	30	38	
13	1	1	0	0	519	516	502	696	29	38	
14	1	1	0	0	519	511	501	700	28	38	
15	1	1	0	0	523	511	502	705	27	38	
0	1	1	0	0	522	516	503	708	26	38	
1	1	1	0	0	523	521	507	712	25	38	
2	1	1	0	0	521	522	506	716	24	38	
3	1	1	0	0	523	522	506	717	23	38	
4	1	1	0	0	521	522	508	716	22	38	
5	1	1	0	0	524	520	508	716	22	39	
6	1	1	0	0	523	519	510	713	21	39	
7	1	1	0	0	526	520	509	711	21	40	
8	1	1	0	0	524	520	509	706	21	40	
9	1	1	0	0	521	520	513	700	21	41	
10	1	1	0	0	523	520	514	695	20	42	
11	1	1	0	0	522	519	515	687	20	42	
12	1	1	0	0	521	518	517	679	20	43	
13	1	1	0	0	518	518	516	670	20	44	
14	1	1	0	0	511	518	514	660	20	44	
15	1	1	0	0	510	518	516	651	20	45	
0	1	1	0	0	503	519	516	641	20	46	
1	1	1	0	0	500	520	518	630	20	46	
2	1	1	0	0	496	519	516	620	20	47	
3	1	1	0	0	494	519	515	609	21	47	
4	1	1	0	0	494	518	514	599	21	47	
5	1	1	0	0	493	518	512	588	22	47	
6	1	1	0	0	496	520	509	578	22	47	
7	1	1	0	0	496	519	509	568	23	46	
8	1	1	0	0	496	516	508	558	23	46	
9	1	1	0	0	497	518	508	550	24	45	
10	1	1	0	0	500	516	504	542	24	45	
11	1	1	0	0	500	517	507	536	25	44	
12	1	1	0	0	499	517	508	531	26	43	
13	1	1	0	0	498	521	511	527	26	42	
14	1	1	0	0	496	514	504	526	27	41	
15	1	1	0	0	493	508	499	524	27	40	
0	1	1	0	0	496	508	497	524	28	39	
1	1	1	0	0	504	511	503	525	28	38	
2	1	1	0	0	503	513	504	527	29	38	
3	1	1	0	0	503	514	506	529	29	37	
4	1	1	0	0	503	516	506	532	30	36	
5	1	1	0	0	504	516	508	536	30	36	
6	1	1	0	0	505	516	506	539	31	35	
7	1	1	0	0	505	514	503	542	31	35	
8	1	1	0	0	507	516	504	547	31	34	
9	1	1	0	0	509	516	506	551	32	34	
10	1	1	0	0	506	515	506	556	32	34	
11	1	1	0	0	506	515	505	559	32	34	
12	1	1	0	0	506	513	509	563	32	33	
13	1	1	0	0	510	513	508	567	32	33	
14	1	1	0	0	508	516	510	569	32	33	
15	1	1	0	0	506	515	508	572	32	33	
0	1	1	0	0	506	518	512	575	32	33	
1	1	1	0	0	505	516	511	576	32	33	
2	1	1	0	0	506	516	512	578	32	33	
3	1	1	0	0	508	516	512	580	32	33	
4	1	1	0	0	508	514	515	581	32	33	
5	1	1	0	0	510	512	511	582	31	33	
6	1	1	0	0	508	512	509	581	31	33	
7	1	1	0	0	508	513	511	582	31	33	
8	1	1	0	0	509	510	511	582	31	33	
9	1	1	0	0	510	511	511	582	31	33	
10	1	1	0	0	512	506	511	580	31	33	
11	1	1	0	0	511	510	506	579	31	33	
12	1	1	0	0	511	506	507	578	31	33	
13	1	1	0	0	512	505	507	575	31	33	
14	1	1	0	0	510	508	510	574	30	33	
15	1	1	0	0	510	509	509	572	30	33	
0	1	1	0	0	511	510	511	570	30	33	
1	1	1	0	0	512	509	514	568	30	33	
2	1	1	0	0	509	506	508	567	30	33	
3	1	1	0	0	512	507	507	564	30	33	
4	1	1	0	0	513	511	509	562	30	33	
5	1	1	0	0	510	510	510	560	30	33	
6	1	1	0	0	511	513	509	558	30	33	
7	1	1	0	0	511	516	511	556	30	33	
8	1	1	0	0	513	519	512	553	30	33	
9	1	1	0	0	513	513	515	551	30	33	
10	1	1	0	0	509	511	517	550	30	33	
11	1	1	0	0	512	502	499	550	30	33	
12	1	1	0	0	513	505	503	547	30	34	
13	1	1	0	0	514	508	508	547	30	34	
14	1	1	0	0	514	512	509	545	30	34	
15	1	1	0	0	514	512	510	543	30	34	
0	1	1	0	0	512	513	511	543	30	34	
1	1	1	0	0	512	514	508	541	30	34	
2	1	1	0	0	508	514	509	540	30	34	
3	1	1	0	0	510	515	511	539	30	34	
4	1	1	0	0	510	512	509	539	30	34	
5	1	1	0	0	512	512	511	539	30	34	
6	1	1	0	0	511	512	511	538	30	34	
7	1	1	0	0	511	514	510	538	30	34	
8	1	1	0	0	510	513	508	537	30	34	
9	1	1	0	0	512	514	511	537	30	34	
10	1	1	0	0	510	512	509	537	30	34	
11	1	1	0	0	510	514	511	536	30	35	
12	1	1	0	0	510	513	511	536	30	35	
13	1	1	0	0	511	515	511	536	30	35	
14	1	1	0	0	510	513	510	535	30	35	
15	1	1	0	0	511	513	511	536	30	35	
0	1	1	0	0	511	512	511	535	30	35	
1	1	1	0	0	509	513	509	536	30	35	
2	1	1	0	0	511	512	509	536	30	35	
3	1	1	0	0	510	514	508	535	30	35	
4	1	1	0	0	509	512	508	536	30	35	
5	1	1	0	0	506	514	506	535	30	35	
6	1	1	0	0	510	512	510	535	30	35	
7	1	1	0	0	509	514	509	535	30	35	
8	1	1	0	0	509	513	509	534	30	35	
9	1	1	0	0	507	512	509	534	30	35	
10	1	1	0	0	507	514	511	535	30	35	
11	1	1	0	0	510	515	508	534	30	35	
12	1	1	0	0	508	512	509	535	30	35	
13	1	1	0	0	507	512	510	535	30	35	
14	1	1	0	0	510	510	512	535	30	35	
15	1	1	0	0	509	511	510	535	30	35	
0	1	1	0	0	510	511	510	536	30	35	
1	1	1	0	0	509	510	509	536	30	35	
2	1	1	0	0	509	513	510	536	30	35	
3	1	1	0	0	508	515	513	537	30	35	
4	1	1	0	0	510	513	513	536	30	36	
5	1	1	0	0	509	513	511	536	30	36	
6	1	1	0	0	510	512	511	537	30	36	
7	1	1	0	0	509	515	512	537	30	36	
8	1	1	0	0	510	512	512	538	30	36	
9	1	1	0	0	510	515	510	538	30	36	
10	1	1	0	0	511	512	512	539	30	36	
11	1	1	0	0	512	511	509	539	30	37	
12	1	1	0	0	510	513	508	539	30	37	
13	1	1	0	0	511	515	507	539	30	37	
14	1	1	0	0	509	513	509	539	30	37	
15	1	1	0	0	510	514	513	540	30	37	
0	1	1	0	0	508	515	511	540	30	38	
1	1	1	0	0	508	516	510	540	30	38	
2	1	1	0	0	510	515	510	540	30	38	
3	1	1	0	0	512	513	508	540	30	38	
4	1	1	0	0	512	513	508	541	31	38	
5	1	1	0	0	511	517	506	541	31	39	
6	1	1	0	0	511	521	505	541	31	39	
7	1	1	0	0	510	518	509	541	31	39	
8	1	1	0	0	510	519	506	541	31	39	
9	1	1	0	0	511	523	505	541	31	39	
10	1	1	0	0	510	523	508	541	31	39	
11	1	1	0	0	511	524	506	542	31	40	
12	1	1	0	0	512	527	505	542	31	40	
13	1	1	0	0	512	512	507	543	31	40	
14	1	1	0	0	514	480	507	544	31	40	
15	1	1	0	0	510	462	503	545	32	40	
0	1	1	0	0	508	478	503	545	32	40	
1	1	1	0	0	511	511	505	546	32	40	
2	1	1	0	0	509	523	508	547	32	40	
3	1	1	0	0	507	525	503	547	32	40	
4	1	1	0	0	510	535	508	548	32	40	
5	1	1	0	0	510	529	505	548	32	40	
6	1	1	0	0	513	514	507	550	32	40	
7	1	1	0	0	513	520	508	550	32	40	
8	1	1	0	0	510	535	505	551	32	40	
9	1	1	0	0	508	536	506	551	32	40	
10	1	1	0	0	509	522	511	553	32	40	
11	1	1	0	0	515	485	508	554	32	40	
12	1	1	0	0	515	494	508	555	32	39	
13	1	1	0	0	511	504	508	555	32	39	
14	1	1	0	0	510	500	509	556	32	39	
15	1	1	0	0	507	498	510	556	32	39	
0	1	1	0	0	510	511	511	557	32	39	
1	1	1	0	0	510	519	512	558	32	39	
2	1	1	0	0	510	528	510	558	32	39	
3	1	1	0	0	511	538	513	558	32	39	
4	1	1	0	0	509	534	511	559	32	38	
5	1	1	0	0	509	533	512	561	32	38	
6	1	1	0	0	511	536	510	561	32	38	
7	1	1	0	0	509	529	509	563	32	38	
8	1	1	0	0	510	521	510	563	32	38	
9	1	1	0	0	511	505	509	562	32	38	
10	1	1	0	0	510	457	508	563	32	38	
11	1	1	0	0	510	448	507	563	32	38	
12	1	1	0	0	510	478	509	564	32	37	
13	1	1	0	0	511	495	507	564	32	37	
14	1	1	0	0	510	515	506	564	31	37	
15	1	1	0	0	507	537	506	566	31	37	
0	1	1	0	0	508	536	507	566	31	37	
1	1	1	0	0	510	528	510	566	31	37	
2	1	1	0	0	510	524	511	567	31	37	
3	1	1	0	0	511	522	510	567	31	37	
4	1	1	0	0	512	522	509	568	31	37	
5	1	1	0	0	510	523	508	567	31	37	
6	1	1	0	0	512	520	507	567	30	37	
7	1	1	0	0	509	526	509	567	30	37	
8	1	1	0	0	508	513	508	567	30	37	
9	1	1	0	0	512	502	510	567	30	37	
10	1	1	0	0	511	508	511	567	30	37	
11	1	1	0	0	509	513	509	567	30	36	
12	1	1	0	0	509	515	509	568	30	36	
13	1	1	0	0	512	516	510	568	30	36	
14	1	1	0	0	512	527	511	569	30	36	
15	1	1	0	0	511	528	510	568	29	36	
0	1	1	0	0	511	528	510	568	29	36	
1	1	1	0	0	509	525	508	568	29	36	
2	1	1	0	0	508	518	511	568	29	36	
3	1	1	0	0	510	513	510	569	29	36	
4	1	1	0	0	511	523	511	568	29	36	
5	1	1	0	0	510	526	509	568	29	36	
6	1	1	0	0	510	519	510	568	29	36	
7	1	1	0	0	511	485	508	569	29	36	
8	1	1	0	0	510	475	509	569	28	36	
9	1	1	0	0	510	504	509	569	28	36	
10	1	1	0	0	508	512	509	570	28	36	
11	1	1	0	0	508	505	511	569	28	36	
12	1	1	0	0	510	476	509	569	28	36	
13	1	1	0	0	511	477	510	570	28	36	
14	1	1	0	0	508	517	509	569	28	36	
15	1	1	0	0	507	532	508	569	28	36	
0	1	1	0	0	508	534	508	569	28	36	
1	1	1	0	0	511	527	510	570	28	36	
2	1	1	0	0	514	520	511	571	28	36	
3	1	1	0	0	511	493	511	571	28	36	
4	1	1	0	0	511	502	509	570	28	36	
5	1	1	0	0	511	523	508	571	28	36	
6	1	1	0	0	512	523	508	571	28	36	
7	1	1	0	0	514	523	510	571	28	36	
8	1	1	0	0	511	522	509	571	28	36	
9	1	1	0	0	510	521	510	571	28	36	
10	1	1	0	0	509	521	510	571	28	36	
11	1	1	0	0	510	517	507	569	28	36	
12	1	1	0	0	511	510	508	571	28	36	
13	1	1	0	0	511	507	509	570	28	35	
14	1	1	0	0	509	509	509	571	28	35	
15	1	1	0	0	511	507	510	571	28	35	
0	1	1	0	0	509	498	508	570	28	35	
1	1	1	0	0	509	505	508	572	28	35	
2	1	1	0	0	506	512	508	572	28	35	
3	1	1	0	0	508	514	510	571	28	35	
4	1	1	0	0	508	515	509	571	28	35	
5	1	1	0	0	511	514	510	570	28	36	
6	1	1	0	0	510	514	511	569	28	36	
7	1	1	0	0	508	520	509	570	28	35	
8	1	1	0	0	510	521	509	571	28	36	
9	1	1	0	0	510	520	507	570	28	35	
10	1	1	0	0	510	515	508	571	28	35	
11	1	1	0	0	511	513	508	571	28	36	
12	1	1	0	0	510	513	509	570	28	36	
13	1	1	0	0	508	515	508	570	28	36	
14	1	1	0	0	510	513	510	570	28	36	
15	1	1	0	0	511	513	509	570	28	36	
0	1	1	0	0	512	511	508	570	28	36	
1	1	1	0	0	510	511	508	570	28	36	
2	1	1	0	0	509	513	511	571	28	36	
3	1	1	0	0	511	509	511	571	28	36	
4	1	1	0	0	511	510	509	570	28	36	
5	1	1	0	0	512	510	510	571	28	36	
6	1	1	0	0	510	516	507	571	28	36	
7	1	1	0	0	508	515	507	571	28	36	
8	1	1	0	0	508	516	510	572	28	36	
9	1	1	0	0	510	515	506	572	28	36	
10	1	1	0	0	507	514	510	572	28	36	
11	1	1	0	0	509	518	511	571	28	36	
12	1	1	0	0	511	516	509	572	28	36	
13	1	1	0	0	509	515	508	572	28	36	
14	1	1	0	0	511	501	509	572	28	36	
15	1	1	0	0	511	498	509	573	28	36	
0	1	1	0	0	511	513	511	573	28	36	
1	1	1	0	0	510	517	511	574	28	36	
2	1	1	0	0	511	519	508	573	28	36	
3	1	1	0	0	512	519	508	573	28	36	
4	1	1	0	0	508	508	507	573	28	36	
5	1	1	0	0	509	493	510	573	28	36	
6	1	1	0	0	511	496	510	573	28	36	
7	1	1	0	0	512	509	510	574	28	36	
8	1	1	0	0	509	515	509	574	28	36	
9	1	1	0	0	508	518	510	574	28	36	
10	1	1	0	0	509	521	510	574	28	36	
11	1	1	0	0	511	521	510	574	28	36	
12	1	1	0	0	509	517	508	575	28	36	
13	1	1	0	0	508	511	509	575	28	37	
14	1	1	0	0	510	515	508	575	28	37	
15	1	1	0	0	509	517	507	574	28	37	
0	1	1	0	0	510	516	508	574	28	37	
1	1	1	0	0	510	515	508	574	28	37	
2	1	1	0	0	508	515	508	574	28	37	
3	1	1	0	0	508	512	508	575	28	37	
4	1	1	0	0	511	512	509	574	28	37	
5	1	1	0	0	510	511	509	574	28	37	
6	1	1	0	0	510	508	509	574	28	37	
7	1	1	0	0	511	511	509	574	28	37	
8	1	1	0	0	510	516	510	574	28	37	
9	1	1	0	0	510	515	510	574	28	37	
10	1	1	0	0	511	518	511	575	28	37	
11	1	1	0	0	511	521	509	574	28	37	
12	1	1	0	0	508	516	507	573	28	37	
13	1	1	0	0	508	513	510	574	28	37	
14	1	1	0	0	509	515	508	573	28	37	
15	1	1	0	0	511	515	509	573	28	37	
0	1	1	0	0	511	513	508	572	28	37	
1	1	1	0	0	510	513	509	572	28	37	
2	1	1	0	0	512	512	508	573	28	37	
3	1	1	0	0	509	512	508	572	28	37	
4	1	1	0	0	508	513	511	572	28	37	
5	1	1	0	0	510	513	508	571	28	37	
6	1	1	0	0	512	507	510	571	28	37	
7	1	1	0	0	510	506	509	570	28	37	
8	1	1	0	0	508	507	509	569	28	37	
9	1	1	0	0	508	510	510	569	28	37	
10	1	1	0	0	509	516	509	569	28	37	
11	1	1	0	0	509	514	510	568	28	37	
12	1	1	0	0	509	508	509	569	28	37	
13	1	1	0	0	511	516	508	568	28	37	
14	1	1	0	0	509	513	509	567	28	37	
15	1	1	0	0	509	514	510	567	28	37	
0	1	1	0	0	510	516	511	567	28	37	
1	1	1	0	0	510	516	511	565	29	37	
2	1	1	0	0	511	517	510	565	28	37	
3	1	1	0	0	511	520	513	564	29	37	
4	1	1	0	0	509	523	509	564	29	37	
5	1	1	0	0	511	521	509	565	29	37	
6	1	1	0	0	510	517	508	564	29	37	
7	1	1	0	0	509	515	509	564	29	37	
8	1	1	0	0	509	505	509	564	29	37	
9	1	1	0	0	510	497	508	563	29	37	
10	1	1	0	0	511	506	509	563	29	37	
11	1	1	0	0	511	505	509	562	29	37	
12	1	1	0	0	509	505	507	561	29	37	
13	1	1	0	0	508	512	508	561	29	37	
14	1	1	0	0	510	514	508	561	29	37	
15	1	1	0	0	508	518	509	561	29	37	
0	1	1	0	0	510	520	509	561	29	37	
1	1	1	0	0	508	520	510	561	29	38	
2	1	1	0	0	509	517	508	561	29	38	
3	1	1	0	0	508	504	510	561	29	38	
4	1	1	0	0	508	492	510	561	29	38	
5	1	1	0	0	508	499	510	561	29	38	
6	1	1	0	0	507	513	509	560	29	38	
7	1	1	0	0	511	515	509	561	29	38	
8	1	1	0	0	511	519	510	561	29	38	
9	1	1	0	0	511	518	509	561	29	38	
10	1	1	0	0	510	515	508	563	29	38	
11	1	1	0	0	512	517	510	563	29	38	
12	1	1	0	0	511	520	510	564	29	38	
13	1	1	0	0	511	529	508	565	29	38	
14	1	1	0	0	511	543	507	566	28	38	
15	1	1	0	0	509	542	510	566	28	38	
0	1	1	0	0	511	535	508	567	28	38	
1	1	1	0	0	510	510	508	567	28	38	
2	1	1	0	0	509	460	508	568	28	38	
3	1	1	0	0	510	480	507	568	28	38	
4	1	1	0	0	510	502	507	569	28	38	
5	1	1	0	0	510	506	508	570	28	38	
6	1	1	0	0	511	504	510	571	28	38	
7	1	1	0	0	510	492	509	571	28	38	
8	1	1	0	0	509	485	511	572	28	38	
9	1	1	0	0	507	502	510	572	28	38	
10	1	1	0	0	507	509	510	573	28	38	
11	1	1	0	0	508	513	509	573	28	38	
12	1	1	0	0	509	522	511	574	28	38	
13	1	1	0	0	510	533	508	572	28	38	
14	1	1	0	0	509	529	507	574	28	38	
15	1	1	0	0	510	526	508	574	28	38	
0	1	1	0	0	510	527	508	575	28	38	
1	1	1	0	0	508	519	509	575	28	38	
2	1	1	0	0	510	522	508	575	28	37	
3	1	1	0	0	510	530	510	576	28	37	
4	1	1	0	0	510	530	508	575	28	37	
5	1	1	0	0	511	524	508	575	28	37	
6	1	1	0	0	511	519	511	575	28	37	
7	1	1	0	0	511	516	508	575	28	37	
8	1	1	0	0	511	512	509	575	28	37	
9	1	1	0	0	510	510	510	574	28	37	
10	1	1	0	0	511	503	508	575	28	37	
11	1	1	0	0	511	486	509	575	28	37	
12	1	1	0	0	510	483	508	574	28	37	
13	1	1	0	0	509	507	509	575	28	37	
14	1	1	0	0	508	514	507	575	28	37	
15	1	1	0	0	508	516	509	575	28	37	
0	1	1	0	0	511	518	509	575	28	37	
1	1	1	0	0	511	516	510	574	28	37	
2	1	1	0	0	510	515	511	574	28	37	
3	1	1	0	0	512	513	508	573	28	37	
4	1	1	0	0	511	515	508	573	28	37	
5	1	1	0	0	508	513	508	573	28	37	
6	1	1	0	0	505	516	508	573	28	37	
7	1	1	0	0	511	516	508	573	28	37	
8	1	1	0	0	511	518	509	573	28	37	
9	1	1	0	0	511	516	509	572	28	37	
10	1	1	0	0	509	515	509	572	28	37	
11	1	1	0	0	511	514	510	572	28	37	
12	1	1	0	0	508	515	510	572	28	37	
13	1	1	0	0	508	514	511	571	28	37	
14	1	1	0	0	510	509	509	570	28	37	
15	1	1	0	0	508	505	508	570	28	37	
0	1	1	0	0	510	512	510	569	28	37	
1	1	1	0	0	511	513	509	569	28	37	
2	1	1	0	0	510	516	512	569	28	37	
3	1	1	0	0	509	515	509	568	28	37	
4	1	1	0	0	510	516	508	568	28	37	
5	1	1	0	0	510	515	508	567	28	37	
6	1	1	0	0	508	513	509	566	28	37	
7	1	1	0	0	512	516	510	566	28	37	
8	1	1	0	0	512	515	507	564	29	37	
9	1	1	0	0	510	514	509	564	29	37	
10	1	1	0	0	508	509	508	563	29	37	
11	1	1	0	0	510	509	510	563	29	37	
12	1	1	0	0	511	512	510	563	29	37	
13	1	1	0	0	510	515	511	562	29	37	
14	1	1	0	0	510	517	510	562	29	37	
15	1	1	0	0	510	520	509	561	29	37	
0	1	1	0	0	512	522	509	561	29	37	
1	1	1	0	0	509	515	506	560	29	37	
2	1	1	0	0	509	503	506	560	29	37	
3	1	1	0	0	511	494	508	559	29	37	
4	1	1	0	0	508	503	510	558	29	37	
5	1	1	0	0	509	516	505	559	29	37	
6	1	1	0	0	508	519	508	558	29	37	
7	1	1	0	0	510	506	509	558	29	37	
8	1	1	0	0	511	491	509	558	29	37	
9	1	1	0	0	508	488	508	558	29	37	
10	1	1	0	0	510	504	509	558	29	37	
11	1	1	0	0	510	521	509	557	29	37	
12	1	1	0	0	507	526	507	558	29	37	
13	1	1	0	0	509	515	510	557	29	37	
14	1	1	0	0	509	520	511	557	29	37	
15	1	1	0	0	511	529	510	557	29	37	
0	1	1	0	0	510	536	512	557	29	37	
1	1	1	0	0	510	535	509	558	30	37	
2	1	1	0	0	509	544	509	558	29	37	
3	1	1	0	0	509	550	510	558	29	37	
4	1	1	0	0	509	540	511	560	29	37	
5	1	1	0	0	511	515	510	560	30	37	
6	1	1	0	0	513	445	510	560	30	37	
7	1	1	0	0	513	436	506	560	30	37	
8	1	1	0	0	509	482	507	560	29	37	
9	1	1	0	0	509	486	505	560	29	37	
10	1	1	0	0	507	495	507	561	29	37	
11	1	1	0	0	506	511	506	561	29	37	
12	1	1	0	0	507	524	507	562	29	37	
13	1	1	0	0	507	525	510	562	29	37	
14	1	1	0	0	509	527	510	563	29	37	
15	1	1	0	0	510	528	510	564	29	37	
0	1	1	0	0	509	527	509	564	29	37	
1	1	1	0	0	510	524	510	564	29	37	
2	1	1	0	0	512	515	508	564	29	37	
3	1	1	0	0	511	502	510	564	29	37	
4	1	1	0	0	511	513	509	564	29	37	
5	1	1	0	0	510	517	509	566	29	37	
6	1	1	0	0	507	519	508	565	29	37	
7	1	1	0	0	510	518	509	565	29	37	
8	1	1	0	0	509	519	508	566	29	37	
9	1	1	0	0	511	517	509	567	29	37	
10	1	1	0	0	510	518	509	567	29	37	
11	1	1	0	0	510	520	510	566	29	37	
12	1	1	0	0	509	521	511	566	29	37	
13	1	1	0	0	510	526	510	566	29	37	
14	1	1	0	0	508	525	509	566	29	37	
15	1	1	0	0	510	523	508	566	29	37	
0	1	1	0	0	511	520	510	566	29	37	
1	1	1	0	0	510	518	511	566	29	37	
2	1	1	0	0	511	511	509	566	29	37	
3	1	1	0	0	509	506	512	566	29	37	
4	1	1	0	0	512	494	510	566	29	37	
5	1	1	0	0	509	470	509	565	29	37	
6	1	1	0	0	511	491	509	565	29	37	
7	1	1	0	0	511	507	511	565	29	37	
8	1	1	0	0	510	513	508	564	29	37	
9	1	1	0	0	511	512	510	563	29	37	
10	1	1	0	0	509	516	508	564	29	37	
11	1	1	0	0	508	519	509	564	29	37	
12	1	1	0	0	510	519	509	564	29	37	
13	1	1	0	0	510	521	511	563	29	37	
14	1	1	0	0	512	522	510	564	29	37	
15	1	1	0	0	511	524	508	563	29	37	
0	1	1	0	0	510	518	511	563	29	37	
1	1	1	0	0	509	517	509	563	29	37	
2	1	1	0	0	509	514	509	563	29	37	
3	1	1	0	0	508	513	509	562	29	37	
4	1	1	0	0	510	510	509	562	29	37	
5	1	1	0	0	509	510	510	561	29	37	
6	1	1	0	0	512	514	509	562	29	37	
7	1	1	0	0	511	520	510	561	29	37	
8	1	1	0	0	511	524	508	562	29	37	
9	1	1	0	0	511	527	508	561	29	37	
10	1	1	0	0	509	521	508	561	29	37	
11	1	1	0	0	511	511	509	561	29	37	
12	1	1	0	0	511	489	508	560	29	37	
13	1	1	0	0	510	499	508	560	29	37	
14	1	1	0	0	510	516	510	560	29	37	
15	1	1	0	0	510	518	509	560	29	37	
0	1	1	0	0	511	506	511	559	29	37	
1	1	1	0	0	511	506	509	559	29	37	
2	1	1	0	0	510	507	509	559	29	37	
3	1	1	0	0	509	512	510	560	29	37	
4	1	1	0	0	511	516	508	558	29	37	
5	1	1	0	0	510	516	507	559	30	37	
6	1	1	0	0	509	515	509	558	29	37	
7	1	1	0	0	510	504	508	558	29	37	
8	1	1	0	0	511	510	510	556	30	37	
9	1	1	0	0	509	514	508	556	30	37	
10	1	1	0	0	510	515	509	557	30	37	
11	1	1	0	0	510	517	508	556	29	37	
12	1	1	0	0	509	518	510	556	30	37	
13	1	1	0	0	510	516	508	556	30	37	
14	1	1	0	0	510	516	510	555	30	37	
15	1	1	0	0	511	511	508	556	30	37	
0	1	1	0	0	510	509	508	556	30	37	
1	1	1	0	0	510	512	507	556	30	37	
2	1	1	0	0	512	512	510	556	30	37	
3	1	1	0	0	510	513	508	555	30	37	
4	1	1	0	0	509	513	507	556	30	37	
5	1	1	0	0	511	513	509	555	30	37	
6	1	1	0	0	512	514	510	555	30	37	
7	1	1	0	0	510	515	511	555	30	37	
8	1	1	0	0	511	518	509	555	30	37	
9	1	1	0	0	511	521	509	556	30	37	
10	1	1	0	0	511	523	509	556	30	37	
11	1	1	0	0	510	518	510	557	30	37	
12	1	1	0	0	511	512	509	556	30	37	
13	1	1	0	0	511	510	510	557	30	37	
14	1	1	0	0	511	513	509	557	30	37	
15	1	1	0	0	509	512	508	557	30	37	
0	1	1	0	0	510	513	508	558	30	37	
1	1	1	0	0	510	512	509	558	30	37	
2	1	1	0	0	509	512	508	558	30	37	
3	1	1	0	0	510	515	510	559	30	37	
4	1	1	0	0	510	513	509	559	30	37	
5	1	1	0	0	508	514	509	560	30	37	
6	1	1	0	0	511	512	509	559	30	37	
7	1	1	0	0	509	512	508	560	30	37	
8	1	1	0	0	509	510	509	560	30	37	
9	1	1	0	0	508	510	507	560	30	37	
10	1	1	0	0	507	510	509	561	30	37	
11	1	1	0	0	508	509	507	560	29	37	
12	1	1	0	0	508	508	508	561	30	37	
13	1	1	0	0	508	514	509	562	30	37	
14	1	1	0	0	509	514	508	561	30	37	
15	1	1	0	0	507	511	510	562	30	37	
0	1	1	0	0	507	512	510	562	30	37	
1	1	1	0	0	507	512	510	561	30	37	
2	1	1	0	0	508	511	508	562	30	37	
3	1	1	0	0	507	511	509	562	30	37	
4	1	1	0	0	506	510	508	561	30	37	
5	1	1	0	0	508	511	509	561	30	37	
6	1	1	0	0	508	508	510	561	30	37	
7	1	1	0	0	506	511	508	562	30	37	
8	1	1	0	0	506	513	509	562	30	37	
9	1	1	0	0	508	515	508	562	30	37	
10	1	1	0	0	508	518	510	563	30	37	
11	1	1	0	0	508	521	508	561	30	37	
12	1	1	0	0	510	528	508	562	30	37	
13	1	1	0	0	510	536	510	562	30	37	
14	1	1	0	0	510	532	508	561	30	37	
15	1	1	0	0	510	516	508	561	30	37	
0	1	1	0	0	511	487	508	561	30	37	
1	1	1	0	0	512	461	509	561	30	37	
2	1	1	0	0	511	489	510	561	30	37	
3	1	1	0	0	508	508	510	561	30	37	
4	1	1	0	0	509	505	509	561	30	37	
5	1	1	0	0	506	514	510	561	30	37	
6	1	1	0	0	508	521	510	562	30	37	
7	1	1	0	0	509	519	509	561	30	37	
8	1	1	0	0	508	518	509	561	30	37	
9	1	1	0	0	510	503	508	560	30	37	
10	1	1	0	0	509	469	508	561	30	37	
11	1	1	0	0	510	482	506	560	30	37	
12	1	1	0	0	510	520	510	560	30	37	
13	1	1	0	0	506	534	508	560	30	37	
14	1	1	0	0	507	537	509	560	30	37	
15	1	1	0	0	507	535	509	560	30	37	
0	1	1	0	0	512	530	509	560	30	37	
1	1	1	0	0	511	519	509	559	30	37	
2	1	1	0	0	510	512	510	559	30	37	
3	1	1	0	0	511	512	509	559	30	37	
4	1	1	0	0	510	510	509	558	30	37	
5	1	1	0	0	510	512	509	558	30	37	
6	1	1	0	0	511	510	510	558	30	37	
7	1	1	0	0	511	516	512	559	30	37	
8	1	1	0	0	511	522	511	558	30	37	
9	1	1	0	0	511	524	513	558	30	37	
10	1	1	0	0	511	523	511	559	30	37	
11	1	1	0	0	511	525	510	558	30	37	
12	1	1	0	0	510	523	512	558	30	37	
13	1	1	0	0	511	519	510	557	30	37	
14	1	1	0	0	511	519	508	556	30	37	
15	1	1	0	0	511	512	509	557	30	37	
0	1	1	0	0	512	492	510	557	30	37	
1	1	1	0	0	510	486	510	557	30	37	
2	1	1	0	0	509	504	510	557	30	37	
3	1	1	0	0	509	512	509	557	30	37	
4	1	1	0	0	510	517	510	558	30	37	
5	1	1	0	0	511	516	508	556	30	37	
6	1	1	0	0	508	517	509	557	30	37	
7	1	1	0	0	509	516	508	556	30	37	
8	1	1	0	0	510	516	507	556	30	37	
9	1	1	0	0	510	519	508	556	30	37	
10	1	1	0	0	510	518	509	557	30	37	
11	1	1	0	0	510	516	511	557	30	37	
12	1	1	0	0	510	519	509	557	30	37	
13	1	1	0	0	510	518	508	557	30	37	
14	1	1	0	0	511	508	511	557	30	37	
15	1	1	0	0	511	499	509	558	30	37	
0	1	1	0	0	510	507	509	557	30	37	
1	1	1	0	0	510	513	509	557	30	37	
2	1	1	0	0	512	516	509	556	30	37	
3	1	1	0	0	512	514	508	557	30	37	
4	1	1	0	0	510	514	508	557	30	37	
5	1	1	0	0	511	513	508	558	30	37	
6	1	1	0	0	510	515	509	558	30	37	
7	1	1	0	0	510	515	511	558	30	37	
8	1	1	0	0	510	514	508	559	30	37	
9	1	1	0	0	510	513	510	559	30	37	
10	1	1	0	0	508	515	510	559	30	37	
11	1	1	0	0	510	515	510	559	30	37	
12	1	1	0	0	508	516	507	558	30	37	
13	1	1	0	0	512	515	510	559	30	37	
14	1	1	0	0	513	514	508	559	30	37	
15	1	1	0	0	512	511	511	559	30	37	
0	1	1	0	0	511	513	507	559	30	37	
1	1	1	0	0	510	513	510	559	30	37	
2	1	1	0	0	508	511	509	560	30	37	
3	1	1	0	0	510	512	510	560	30	37	
4	1	1	0	0	510	514	508	560	30	37	
5	1	1	0	0	511	512	509	560	30	37	
6	1	1	0	0	510	505	508	559	30	37	
7	1	1	0	0	511	504	510	559	30	37	
8	1	1	0	0	507	511	509	559	30	37	
9	1	1	0	0	510	512	508	559	30	37	
10	1	1	0	0	510	513	508	559	30	37	
11	1	1	0	0	511	515	510	559	30	37	
12	1	1	0	0	509	517	506	559	30	37	
13	1	1	0	0	509	519	509	559	30	37	
14	1	1	0	0	508	515	509	559	30	37	
15	1	1	0	0	507	512	510	560	30	37	
0	1	1	0	0	509	514	511	559	30	37	
1	1	1	0	0	510	513	508	559	30	37	
2	1	1	0	0	511	512	510	559	30	37	
3	1	1	0	0	511	509	510	558	30	37	
4	1	1	0	0	511	510	510	559	30	37	
5	1	1	0	0	511	514	510	557	30	37	
6	1	1	0	0	511	512	508	558	30	37	
7	1	1	0	0	509	508	510	558	30	37	
8	1	1	0	0	509	514	510	558	30	37	
9	1	1	0	0	512	521	510	557	30	37	
10	1	1	0	0	508	522	508	557	30	37	
11	1	1	0	0	509	524	508	557	30	37	
12	1	1	0	0	507	527	508	556	30	37	
13	1	1	0	0	511	522	508	556	30	37	
14	1	1	0	0	509	517	509	556	30	37	
15	1	1	0	0	511	510	509	556	30	37	
0	1	1	0	0	512	503	510	556	30	37	
1	1	1	0	0	510	502	508	556	30	37	
2	1	1	0	0	508	504	509	556	30	37	
3	1	1	0	0	508	501	509	556	30	37	
4	1	1	0	0	509	509	509	555	30	37	
5	1	1	0	0	507	535	509	556	30	37	
6	1	1	0	0	508	543	509	555	30	37	
7	1	1	0	0	507	520	510	555	30	37	
8	1	1	0	0	511	487	510	555	30	37	
9	1	1	0	0	511	454	508	555	30	37	
10	1	1	0	0	510	496	508	555	30	37	
11	1	1	0	0	508	515	510	555	30	37	
12	1	1	0	0	511	501	510	555	30	37	
13	1	1	0	0	510	482	511	555	30	37	
14	1	1	0	0	513	497	507	555	30	37	
15	1	1	0	0	507	514	508	555	30	37	
0	1	1	0	0	509	519	509	555	30	37	
1	1	1	0	0	509	535	506	555	30	37	
2	1	1	0	0	510	540	507	555	30	37	
3	1	1	0	0	509	527	508	554	30	37	
4	1	1	0	0	510	512	508	554	30	37	
5	1	1	0	0	511	527	508	554	30	37	
6	1	1	0	0	511	531	508	555	30	37	
7	1	1	0	0	510	521	508	555	30	37	
8	1	1	0	0	510	519	509	554	30	37	
9	1	1	0	0	511	518	511	555	30	37	
10	1	1	0	0	513	507	511	556	30	37	
11	1	1	0	0	510	497	507	556	30	37	
12	1	1	0	0	511	508	511	555	30	37	
13	1	1	0	0	510	514	510	555	30	37	
14	1	1	0	0	511	514	510	555	30	37	
15	1	1	0	0	510	516	510	555	30	37	
0	1	1	0	0	512	516	511	556	30	37	
1	1	1	0	0	512	519	510	556	30	37	
2	1	1	0	0	510	519	509	556	30	37	
3	1	1	0	0	510	519	508	557	30	37	
4	1	1	0	0	509	519	509	557	30	37	
5	1	1	0	0	510	513	508	558	30	37	
6	1	1	0	0	512	513	509	558	30	37	
7	1	1	0	0	512	510	508	557	30	37	
8	1	1	0	0	509	515	506	559	30	37	
9	1	1	0	0	512	517	510	559	30	37	
10	1	1	0	0	511	519	510	559	30	37	
11	1	1	0	0	510	520	510	559	30	37	
12	1	1	0	0	509	519	508	559	30	37	
13	1	1	0	0	509	515	508	560	30	37	
14	1	1	0	0	511	502	509	560	30	37	
